# Wavelength table for foc
1000.00 
1002.98 
1005.97 
1008.96 
1011.97 
1014.99 
1018.01 
1021.04 
1024.08 
1027.14 
1030.20 
1033.26 
1036.34 
1039.43 
1042.53 
1045.63 
1048.75 
1051.87 
1055.01 
1058.15 
1061.30 
1064.47 
1067.64 
1070.82 
1074.01 
1077.21 
1080.42 
1083.64 
1086.86 
1090.10 
1093.35 
1096.61 
1099.87 
1103.15 
1106.44 
1109.73 
1113.04 
1116.36 
1119.68 
1123.02 
1126.36 
1129.72 
1133.09 
1136.46 
1139.85 
1143.24 
1146.65 
1150.07 
1153.49 
1156.93 
1160.38 
1163.83 
1167.30 
1170.78 
1174.27 
1177.76 
1181.27 
1184.79 
1188.32 
1191.86 
1195.41 
1198.98 
1202.55 
1206.13 
1209.72 
1213.33 
1216.94 
1220.57 
1224.21 
1227.85 
1231.51 
1235.18 
1238.86 
1242.55 
1246.25 
1249.97 
1253.69 
1257.42 
1261.17 
1264.93 
1268.70 
1272.48 
1276.27 
1280.07 
1283.88 
1287.71 
1291.55 
1295.39 
1299.25 
1303.12 
1307.01 
1310.90 
1314.81 
1318.72 
1322.65 
1326.59 
1330.54 
1334.51 
1338.48 
1342.47 
1346.47 
1350.48 
1354.51 
1358.54 
1362.59 
1366.65 
1370.72 
1374.81 
1378.90 
1383.01 
1387.13 
1391.26 
1395.41 
1399.57 
1403.73 
1407.92 
1412.11 
1416.32 
1420.54 
1424.77 
1429.02 
1433.27 
1437.54 
1441.83 
1446.12 
1450.43 
1454.75 
1459.09 
1463.43 
1467.79 
1472.17 
1476.55 
1480.95 
1485.36 
1489.79 
1494.23 
1498.68 
1503.14 
1507.62 
1512.11 
1516.62 
1521.14 
1525.67 
1530.21 
1534.77 
1539.35 
1543.93 
1548.53 
1553.15 
1557.77 
1562.41 
1567.07 
1571.74 
1576.42 
1581.12 
1585.83 
1590.55 
1595.29 
1600.04 
1604.81 
1609.59 
1614.39 
1619.20 
1624.02 
1628.86 
1633.71 
1638.58 
1643.46 
1648.36 
1653.27 
1658.20 
1663.14 
1668.09 
1673.06 
1678.04 
1683.04 
1688.06 
1693.09 
1698.13 
1703.19 
1708.27 
1713.35 
1718.46 
1723.58 
1728.71 
1733.86 
1739.03 
1744.21 
1749.41 
1754.62 
1759.85 
1765.09 
1770.35 
1775.62 
1780.91 
1786.22 
1791.54 
1796.88 
1802.23 
1807.60 
1812.99 
1818.39 
1823.81 
1829.24 
1834.69 
1840.16 
1845.64 
1851.14 
1856.65 
1862.18 
1867.73 
1873.30 
1878.88 
1884.48 
1890.09 
1895.72 
1901.37 
1907.03 
1912.72 
1918.41 
1924.13 
1929.86 
1935.61 
1941.38 
1947.16 
1952.96 
1958.78 
1964.62 
1970.47 
1976.34 
1982.23 
1988.14 
1994.06 
2000.00 
2005.96 
2011.93 
2017.93 
2023.94 
2029.97 
2036.02 
2042.09 
2048.17 
2054.27 
2060.39 
2066.53 
2072.69 
2078.86 
2085.06 
2091.27 
2097.50 
2103.75 
2110.01 
2116.30 
2122.61 
2128.93 
2135.27 
2141.63 
2148.02 
2154.41 
2160.83 
2167.27 
2173.73 
2180.20 
2186.70 
2193.21 
2199.75 
2206.30 
2212.88 
2219.47 
2226.08 
2232.71 
2239.37 
2246.04 
2252.73 
2259.44 
2266.17 
2272.92 
2279.70 
2286.49 
2293.30 
2300.13 
2306.98 
2313.86 
2320.75 
2327.67 
2334.60 
2341.56 
2348.53 
2355.53 
2362.55 
2369.59 
2376.65 
2383.73 
2390.83 
2397.95 
2405.10 
2412.26 
2419.45 
2426.66 
2433.89 
2441.14 
2448.41 
2455.71 
2463.02 
2470.36 
2477.72 
2485.10 
2492.51 
2499.93 
2507.38 
2514.85 
2522.34 
2529.86 
2537.39 
2544.95 
2552.54 
2560.14 
2567.77 
2575.42 
2583.09 
2590.79 
2598.51 
2606.25 
2614.01 
2621.80 
2629.61 
2637.45 
2645.30 
2653.19 
2661.09 
2669.02 
2676.97 
2684.95 
2692.94 
2700.97 
2709.01 
2717.09 
2725.18 
2733.30 
2741.44 
2749.61 
2757.80 
2766.02 
2774.26 
2782.53 
2790.82 
2799.13 
2807.47 
2815.83 
2824.22 
2832.64 
2841.08 
2849.54 
2858.03 
2866.55 
2875.09 
2883.65 
2892.24 
2900.86 
2909.50 
2918.17 
2926.87 
2935.59 
2944.33 
2953.10 
2961.90 
2970.73 
2979.58 
2988.45 
2997.36 
3006.29 
3015.24 
3024.23 
3033.24 
3042.27 
3051.34 
3060.43 
3069.55 
3078.69 
3087.86 
3097.06 
3106.29 
3115.55 
3124.83 
3134.14 
3143.48 
3152.84 
3162.23 
3171.66 
3181.10 
3190.58 
3200.09 
3209.62 
3219.18 
3228.78 
3238.40 
3248.04 
3257.72 
3267.43 
3277.16 
3286.92 
3296.72 
3306.54 
3316.39 
3326.27 
3336.18 
3346.12 
3356.09 
3366.09 
3376.12 
3386.18 
3396.26 
3406.38 
3416.53 
3426.71 
3436.92 
3447.16 
3457.43 
3467.73 
3478.06 
3488.42 
3498.82 
3509.24 
3519.70 
3530.18 
3540.70 
3551.25 
3561.83 
3572.44 
3583.08 
3593.76 
3604.47 
3615.20 
3625.98 
3636.78 
3647.61 
3658.48 
3669.38 
3680.31 
3691.28 
3702.27 
3713.31 
3724.37 
3735.46 
3746.59 
3757.76 
3768.95 
3780.18 
3791.44 
3802.74 
3814.07 
3825.43 
3836.83 
3848.26 
3859.72 
3871.22 
3882.76 
3894.33 
3905.93 
3917.56 
3929.24 
3940.94 
3952.68 
3964.46 
3976.27 
3988.12 
4000.00 
4011.92 
4023.87 
4035.86 
4047.88 
4059.94 
4072.04 
4084.17 
4096.34 
4108.54 
4120.78 
4133.06 
4145.37 
4157.72 
4170.11 
4182.54 
4195.00 
4207.49 
4220.03 
4232.60 
4245.21 
4257.86 
4270.55 
4283.27 
4296.03 
4308.83 
4321.67 
4334.54 
4347.46 
4360.41 
4373.40 
4386.43 
4399.50 
4412.61 
4425.75 
4438.94 
4452.16 
4465.43 
4478.73 
4492.07 
4505.46 
4518.88 
4532.34 
4545.85 
4559.39 
4572.98 
4586.60 
4600.26 
4613.97 
4627.72 
4641.50 
4655.33 
4669.20 
4683.11 
4697.07 
4711.06 
4725.10 
4739.17 
4753.29 
4767.45 
4781.66 
4795.90 
4810.19 
4824.52 
4838.90 
4853.31 
4867.77 
4882.28 
4896.82 
4911.41 
4926.04 
4940.72 
4955.44 
4970.20 
4985.01 
4999.86 
5014.76 
5029.70 
5044.68 
5059.71 
5074.79 
5089.91 
5105.07 
5120.28 
5135.54 
5150.84 
5166.18 
5181.57 
5197.01 
5212.50 
5228.03 
5243.60 
5259.22 
5274.89 
5290.61 
5306.37 
5322.18 
5338.04 
5353.94 
5369.89 
5385.89 
5401.94 
5418.03 
5434.17 
5450.36 
5466.60 
5482.89 
5499.22 
5515.61 
5532.04 
5548.52 
5565.05 
5581.63 
5598.26 
5614.94 
5631.67 
5648.45 
5665.27 
5682.15 
5699.08 
5716.06 
5733.09 
5750.17 
5767.30 
5784.49 
5801.72 
5819.01 
5836.34 
5853.73 
5871.17 
5888.66 
5906.21 
5923.80 
5941.45 
5959.15 
5976.91 
5994.71 
6012.57 
6030.49 
6048.45 
6066.47 
6084.55 
6102.68 
6120.86 
6139.09 
6157.38 
6175.73 
6194.13 
6212.58 
6231.09 
6249.66 
6268.28 
6286.95 
6305.68 
6324.47 
6343.31 
6362.21 
6381.16 
6400.18 
6419.24 
6438.37 
6457.55 
6476.79 
6496.09 
6515.44 
6534.85 
6554.32 
6573.85 
6593.43 
6613.08 
6632.78 
6652.54 
6672.36 
6692.24 
6712.18 
6732.18 
6752.23 
6772.35 
6792.53 
6812.76 
6833.06 
6853.42 
6873.84 
6894.32 
6914.86 
6935.46 
6956.12 
6976.85 
6997.63 
7018.48 
7039.39 
7060.36 
7081.40 
7102.50 
7123.66 
7144.88 
7166.17 
7187.52 
7208.93 
7230.41 
7251.95 
7273.56 
7295.23 
7316.96 
7338.76 
7360.63 
7382.55 
7404.55 
7426.61 
7448.74 
7470.93 
7493.19 
7515.51 
7537.90 
7560.36 
7582.88 
7605.48 
7628.14 
7650.86 
7673.66 
7696.52 
7719.45 
7742.45 
7765.51 
7788.65 
7811.86 
7835.13 
7858.47 
7881.89 
7905.37 
7928.92 
7952.54 
7976.24 
8000.00 
