# Wavelength table for fos,blue,g570h
4583.39 
4587.87 
4592.35 
4596.83 
4601.31 
4605.79 
4610.27 
4614.75 
4619.23 
4623.71 
4628.19 
4632.67 
4637.15 
4641.63 
4646.12 
4650.60 
4655.08 
4659.56 
4664.04 
4668.52 
4673.00 
4677.49 
4681.97 
4686.45 
4690.93 
4695.41 
4699.90 
4704.38 
4708.86 
4713.34 
4717.83 
4722.31 
4726.79 
4731.27 
4735.76 
4740.24 
4744.72 
4749.21 
4753.69 
4758.17 
4762.66 
4767.14 
4771.62 
4776.11 
4780.59 
4785.07 
4789.56 
4794.04 
4798.52 
4803.01 
4807.49 
4811.98 
4816.46 
4820.94 
4825.43 
4829.91 
4834.40 
4838.88 
4843.37 
4847.85 
4852.33 
4856.82 
4861.30 
4865.79 
4870.27 
4874.76 
4879.24 
4883.73 
4888.21 
4892.70 
4897.18 
4901.67 
4906.15 
4910.64 
4915.12 
4919.61 
4924.09 
4928.58 
4933.06 
4937.55 
4942.04 
4946.52 
4951.01 
4955.49 
4959.98 
4964.46 
4968.95 
4973.43 
4977.92 
4982.41 
4986.89 
4991.38 
4995.86 
5000.35 
5004.83 
5009.32 
5013.81 
5018.29 
5022.78 
5027.26 
5031.75 
5036.23 
5040.72 
5045.21 
5049.69 
5054.18 
5058.66 
5063.15 
5067.64 
5072.12 
5076.61 
5081.09 
5085.58 
5090.06 
5094.55 
5099.04 
5103.52 
5108.01 
5112.49 
5116.98 
5121.47 
5125.95 
5130.44 
5134.92 
5139.41 
5143.89 
5148.38 
5152.87 
5157.35 
5161.84 
5166.32 
5170.81 
5175.29 
5179.78 
5184.27 
5188.75 
5193.24 
5197.72 
5202.21 
5206.69 
5211.18 
5215.66 
5220.15 
5224.63 
5229.12 
5233.61 
5238.09 
5242.58 
5247.06 
5251.55 
5256.03 
5260.52 
5265.00 
5269.49 
5273.97 
5278.46 
5282.94 
5287.43 
5291.91 
5296.39 
5300.88 
5305.36 
5309.85 
5314.33 
5318.82 
5323.30 
5327.79 
5332.27 
5336.75 
5341.24 
5345.72 
5350.21 
5354.69 
5359.17 
5363.66 
5368.14 
5372.62 
5377.11 
5381.59 
5386.07 
5390.56 
5395.04 
5399.52 
5404.01 
5408.49 
5412.97 
5417.46 
5421.94 
5426.42 
5430.90 
5435.39 
5439.87 
5444.35 
5448.83 
5453.32 
5457.80 
5462.28 
5466.76 
5471.24 
5475.73 
5480.21 
5484.69 
5489.17 
5493.65 
5498.13 
5502.61 
5507.10 
5511.58 
5516.06 
5520.54 
5525.02 
5529.50 
5533.98 
5538.46 
5542.94 
5547.42 
5551.90 
5556.38 
5560.86 
5565.34 
5569.82 
5574.30 
5578.78 
5583.26 
5587.74 
5592.22 
5596.70 
5601.17 
5605.65 
5610.13 
5614.61 
5619.09 
5623.57 
5628.04 
5632.52 
5637.00 
5641.48 
5645.95 
5650.43 
5654.91 
5659.39 
5663.86 
5668.34 
5672.82 
5677.29 
5681.77 
5686.25 
5690.72 
5695.20 
5699.67 
5704.15 
5708.63 
5713.10 
5717.58 
5722.05 
5726.53 
5731.00 
5735.48 
5739.95 
5744.42 
5748.90 
5753.37 
5757.85 
5762.32 
5766.79 
5771.27 
5775.74 
5780.21 
5784.69 
5789.16 
5793.63 
5798.10 
5802.58 
5807.05 
5811.52 
5815.99 
5820.46 
5824.93 
5829.41 
5833.88 
5838.35 
5842.82 
5847.29 
5851.76 
5856.23 
5860.70 
5865.17 
5869.64 
5874.11 
5878.58 
5883.05 
5887.51 
5891.98 
5896.45 
5900.92 
5905.39 
5909.86 
5914.32 
5918.79 
5923.26 
5927.73 
5932.19 
5936.66 
5941.13 
5945.59 
5950.06 
5954.52 
5958.99 
5963.45 
5967.92 
5972.38 
5976.85 
5981.31 
5985.78 
5990.24 
5994.71 
5999.17 
6003.63 
6008.10 
6012.56 
6017.02 
6021.49 
6025.95 
6030.41 
6034.87 
6039.33 
6043.80 
6048.26 
6052.72 
6057.18 
6061.64 
6066.10 
6070.56 
6075.02 
6079.48 
6083.94 
6088.40 
6092.86 
6097.32 
6101.78 
6106.23 
6110.69 
6115.15 
6119.61 
6124.07 
6128.52 
6132.98 
6137.44 
6141.89 
6146.35 
6150.80 
6155.26 
6159.72 
6164.17 
6168.62 
6173.08 
6177.53 
6181.99 
6186.44 
6190.90 
6195.35 
6199.80 
6204.25 
6208.71 
6213.16 
6217.61 
6222.06 
6226.51 
6230.97 
6235.42 
6239.87 
6244.32 
6248.77 
6253.22 
6257.67 
6262.12 
6266.57 
6271.01 
6275.46 
6279.91 
6284.36 
6288.81 
6293.25 
6297.70 
6302.15 
6306.59 
6311.04 
6315.49 
6319.93 
6324.38 
6328.82 
6333.27 
6337.71 
6342.16 
6346.60 
6351.04 
6355.49 
6359.93 
6364.37 
6368.81 
6373.26 
6377.70 
6382.14 
6386.58 
6391.02 
6395.46 
6399.90 
6404.34 
6408.78 
6413.22 
6417.66 
6422.10 
6426.54 
6430.97 
6435.41 
6439.85 
6444.29 
6448.72 
6453.16 
6457.60 
6462.03 
6466.47 
6470.90 
6475.34 
6479.77 
6484.21 
6488.64 
6493.07 
6497.51 
6501.94 
6506.37 
6510.80 
6515.24 
6519.67 
6524.10 
6528.53 
6532.96 
6537.39 
6541.82 
6546.25 
6550.68 
6555.11 
6559.54 
6563.96 
6568.39 
6572.82 
6577.25 
6581.67 
6586.10 
6590.52 
6594.95 
6599.38 
6603.80 
6608.23 
6612.65 
6617.07 
6621.50 
6625.92 
6630.34 
6634.77 
6639.19 
6643.61 
6648.03 
6652.45 
6656.87 
6661.29 
6665.71 
6670.13 
6674.55 
6678.97 
6683.39 
6687.80 
6692.22 
6696.64 
6701.06 
6705.47 
6709.89 
6714.30 
6718.72 
6723.13 
6727.55 
6731.96 
6736.38 
6740.79 
6745.20 
6749.62 
6754.03 
6758.44 
6762.85 
6767.26 
6771.67 
6776.08 
6780.49 
6784.90 
6789.31 
6793.72 
6798.13 
6802.54 
6806.94 
6811.35 
6815.76 
6820.16 
6824.57 
6828.97 
6833.38 
6837.78 
6842.19 
6846.59 
6851.00 
6855.40 
6859.80 
6864.20 
