# Wavelength table for fos,red,g400h
    3251.16
    3254.19
    3257.21
    3260.23
    3263.26
    3266.28
     3269.3
    3272.33
    3275.35
    3278.37
     3281.4
    3284.42
    3287.44
    3290.47
    3293.49
    3296.51
    3299.54
    3302.56
    3305.59
    3308.61
    3311.64
    3314.66
    3317.68
    3320.71
    3323.73
    3326.76
    3329.78
    3332.81
    3335.83
    3338.86
    3341.88
    3344.91
    3347.93
    3350.96
    3353.98
    3357.01
    3360.03
    3363.06
    3366.08
    3369.11
    3372.13
    3375.16
    3378.18
    3381.21
    3384.24
    3387.26
    3390.29
    3393.31
    3396.34
    3399.37
    3402.39
    3405.42
    3408.45
    3411.47
     3414.5
    3417.52
    3420.55
    3423.58
     3426.6
    3429.63
    3432.66
    3435.68
    3438.71
    3441.74
    3444.77
    3447.79
    3450.82
    3453.85
    3456.87
     3459.9
    3462.93
    3465.96
    3468.98
    3472.01
    3475.04
    3478.07
     3481.1
    3484.12
    3487.15
    3490.18
    3493.21
    3496.24
    3499.26
    3502.29
    3505.32
    3508.35
    3511.38
    3514.41
    3517.43
    3520.46
    3523.49
    3526.52
    3529.55
    3532.58
    3535.61
    3538.64
    3541.66
    3544.69
    3547.72
    3550.75
    3553.78
    3556.81
    3559.84
    3562.87
     3565.9
    3568.93
    3571.96
    3574.99
    3578.02
    3581.05
    3584.08
    3587.11
    3590.14
    3593.17
     3596.2
    3599.23
    3602.26
    3605.29
    3608.32
    3611.35
    3614.38
    3617.41
    3620.44
    3623.47
     3626.5
    3629.53
    3632.56
    3635.59
    3638.62
    3641.65
    3644.68
    3647.72
    3650.75
    3653.78
    3656.81
    3659.84
    3662.87
     3665.9
    3668.93
    3671.97
      3675.
    3678.03
    3681.06
    3684.09
    3687.12
    3690.15
    3693.19
    3696.22
    3699.25
    3702.28
    3705.31
    3708.35
    3711.38
    3714.41
    3717.44
    3720.48
    3723.51
    3726.54
    3729.57
     3732.6
    3735.64
    3738.67
     3741.7
    3744.74
    3747.77
     3750.8
    3753.83
    3756.87
     3759.9
    3762.93
    3765.97
      3769.
    3772.03
    3775.06
     3778.1
    3781.13
    3784.16
     3787.2
    3790.23
    3793.26
     3796.3
    3799.33
    3802.37
     3805.4
    3808.43
    3811.47
     3814.5
    3817.53
    3820.57
     3823.6
    3826.64
    3829.67
     3832.7
    3835.74
    3838.77
    3841.81
    3844.84
    3847.88
    3850.91
    3853.94
    3856.98
    3860.01
    3863.05
    3866.08
    3869.12
    3872.15
    3875.19
    3878.22
    3881.26
    3884.29
    3887.33
    3890.36
     3893.4
    3896.43
    3899.47
     3902.5
    3905.54
    3908.57
    3911.61
    3914.64
    3917.68
    3920.71
    3923.75
    3926.78
    3929.82
    3932.86
    3935.89
    3938.93
    3941.96
      3945.
    3948.03
    3951.07
    3954.11
    3957.14
    3960.18
    3963.21
    3966.25
    3969.29
    3972.32
    3975.36
    3978.39
    3981.43
    3984.47
     3987.5
    3990.54
    3993.58
    3996.61
    3999.65
    4002.69
    4005.72
    4008.76
     4011.8
    4014.83
    4017.87
    4020.91
    4023.94
    4026.98
    4030.02
    4033.05
    4036.09
    4039.13
    4042.17
     4045.2
    4048.24
    4051.28
    4054.31
    4057.35
    4060.39
    4063.43
    4066.46
     4069.5
    4072.54
    4075.58
    4078.61
    4081.65
    4084.69
    4087.73
    4090.76
     4093.8
    4096.84
    4099.88
    4102.92
    4105.95
    4108.99
    4112.03
    4115.07
    4118.11
    4121.14
    4124.18
    4127.22
    4130.26
     4133.3
    4136.33
    4139.37
    4142.41
    4145.45
    4148.49
    4151.53
    4154.56
     4157.6
    4160.64
    4163.68
    4166.72
    4169.76
     4172.8
    4175.84
    4178.87
    4181.91
    4184.95
    4187.99
    4191.03
    4194.07
    4197.11
    4200.15
    4203.19
    4206.22
    4209.26
     4212.3
    4215.34
    4218.38
    4221.42
    4224.46
     4227.5
    4230.54
    4233.58
    4236.62
    4239.66
     4242.7
    4245.74
    4248.78
    4251.81
    4254.85
    4257.89
    4260.93
    4263.97
    4267.01
    4270.05
    4273.09
    4276.13
    4279.17
    4282.21
    4285.25
    4288.29
    4291.33
    4294.37
    4297.41
    4300.45
    4303.49
    4306.53
    4309.57
    4312.61
    4315.65
    4318.69
    4321.73
    4324.77
    4327.81
    4330.85
    4333.89
    4336.93
    4339.98
    4343.02
    4346.06
     4349.1
    4352.14
    4355.18
    4358.22
    4361.26
     4364.3
    4367.34
    4370.38
    4373.42
    4376.46
     4379.5
    4382.54
    4385.59
    4388.63
    4391.67
    4394.71
    4397.75
    4400.79
    4403.83
    4406.87
    4409.91
    4412.95
      4416.
    4419.04
    4422.08
    4425.12
    4428.16
     4431.2
    4434.24
    4437.28
    4440.32
    4443.37
    4446.41
    4449.45
    4452.49
    4455.53
    4458.57
    4461.61
    4464.66
     4467.7
    4470.74
    4473.78
    4476.82
    4479.86
    4482.91
    4485.95
    4488.99
    4492.03
    4495.07
    4498.11
    4501.16
     4504.2
    4507.24
    4510.28
    4513.32
    4516.37
    4519.41
    4522.45
    4525.49
    4528.53
    4531.57
    4534.62
    4537.66
     4540.7
    4543.74
    4546.79
    4549.83
    4552.87
    4555.91
    4558.95
      4562.
    4565.04
    4568.08
    4571.12
    4574.16
    4577.21
    4580.25
    4583.29
    4586.33
    4589.38
    4592.42
    4595.46
     4598.5
    4601.55
    4604.59
    4607.63
    4610.67
    4613.72
    4616.76
     4619.8
    4622.84
    4625.89
    4628.93
    4631.97
    4635.01
    4638.06
     4641.1
    4644.14
    4647.19
    4650.23
    4653.27
    4656.31
    4659.36
     4662.4
    4665.44
    4668.48
    4671.53
    4674.57
    4677.61
    4680.66
     4683.7
    4686.74
    4689.78
    4692.83
    4695.87
    4698.91
    4701.96
      4705.
    4708.04
    4711.09
    4714.13
    4717.17
    4720.21
    4723.26
     4726.3
    4729.34
    4732.39
    4735.43
    4738.47
    4741.52
    4744.56
     4747.6
    4750.65
    4753.69
    4756.73
    4759.78
    4762.82
    4765.86
    4768.91
    4771.95
    4774.99
    4778.04
    4781.08
    4784.12
    4787.17
    4790.21
    4793.25
     4796.3
    4799.34
    4802.38
