# Wavelength table for fos,blue,g400h
3244.32 
3247.40 
3250.48 
3253.55 
3256.63 
3259.71 
3262.78 
3265.86 
3268.94 
3272.01 
3275.09 
3278.17 
3281.24 
3284.32 
3287.40 
3290.48 
3293.55 
3296.63 
3299.71 
3302.79 
3305.87 
3308.94 
3312.02 
3315.10 
3318.18 
3321.26 
3324.34 
3327.42 
3330.50 
3333.57 
3336.65 
3339.73 
3342.81 
3345.89 
3348.97 
3352.05 
3355.13 
3358.21 
3361.29 
3364.37 
3367.45 
3370.53 
3373.61 
3376.69 
3379.77 
3382.85 
3385.93 
3389.01 
3392.09 
3395.17 
3398.25 
3401.33 
3404.41 
3407.49 
3410.57 
3413.65 
3416.74 
3419.82 
3422.90 
3425.98 
3429.06 
3432.14 
3435.22 
3438.30 
3441.39 
3444.47 
3447.55 
3450.63 
3453.71 
3456.79 
3459.88 
3462.96 
3466.04 
3469.12 
3472.20 
3475.29 
3478.37 
3481.45 
3484.53 
3487.61 
3490.70 
3493.78 
3496.86 
3499.94 
3503.03 
3506.11 
3509.19 
3512.27 
3515.36 
3518.44 
3521.52 
3524.61 
3527.69 
3530.77 
3533.85 
3536.94 
3540.02 
3543.10 
3546.19 
3549.27 
3552.35 
3555.43 
3558.52 
3561.60 
3564.68 
3567.77 
3570.85 
3573.93 
3577.02 
3580.10 
3583.18 
3586.27 
3589.35 
3592.43 
3595.52 
3598.60 
3601.68 
3604.77 
3607.85 
3610.93 
3614.02 
3617.10 
3620.18 
3623.27 
3626.35 
3629.44 
3632.52 
3635.60 
3638.69 
3641.77 
3644.85 
3647.94 
3651.02 
3654.10 
3657.19 
3660.27 
3663.35 
3666.44 
3669.52 
3672.60 
3675.69 
3678.77 
3681.86 
3684.94 
3688.02 
3691.11 
3694.19 
3697.27 
3700.36 
3703.44 
3706.52 
3709.61 
3712.69 
3715.77 
3718.86 
3721.94 
3725.02 
3728.11 
3731.19 
3734.27 
3737.36 
3740.44 
3743.52 
3746.61 
3749.69 
3752.77 
3755.86 
3758.94 
3762.02 
3765.10 
3768.19 
3771.27 
3774.35 
3777.44 
3780.52 
3783.60 
3786.69 
3789.77 
3792.85 
3795.93 
3799.02 
3802.10 
3805.18 
3808.26 
3811.35 
3814.43 
3817.51 
3820.59 
3823.68 
3826.76 
3829.84 
3832.92 
3836.00 
3839.09 
3842.17 
3845.25 
3848.33 
3851.41 
3854.50 
3857.58 
3860.66 
3863.74 
3866.82 
3869.91 
3872.99 
3876.07 
3879.15 
3882.23 
3885.31 
3888.39 
3891.47 
3894.56 
3897.64 
3900.72 
3903.80 
3906.88 
3909.96 
3913.04 
3916.12 
3919.20 
3922.28 
3925.36 
3928.44 
3931.52 
3934.60 
3937.68 
3940.76 
3943.84 
3946.92 
3950.00 
3953.08 
3956.16 
3959.24 
3962.32 
3965.40 
3968.48 
3971.56 
3974.64 
3977.72 
3980.80 
3983.88 
3986.96 
3990.03 
3993.11 
3996.19 
3999.27 
4002.35 
4005.43 
4008.50 
4011.58 
4014.66 
4017.74 
4020.82 
4023.89 
4026.97 
4030.05 
4033.13 
4036.20 
4039.28 
4042.36 
4045.43 
4048.51 
4051.59 
4054.67 
4057.74 
4060.82 
4063.89 
4066.97 
4070.05 
4073.12 
4076.20 
4079.27 
4082.35 
4085.43 
4088.50 
4091.58 
4094.65 
4097.73 
4100.80 
4103.88 
4106.95 
4110.03 
4113.10 
4116.17 
4119.25 
4122.32 
4125.40 
4128.47 
4131.54 
4134.62 
4137.69 
4140.77 
4143.84 
4146.91 
4149.98 
4153.06 
4156.13 
4159.20 
4162.28 
4165.35 
4168.42 
4171.49 
4174.56 
4177.64 
4180.71 
4183.78 
4186.85 
4189.92 
4192.99 
4196.06 
4199.13 
4202.20 
4205.27 
4208.34 
4211.41 
4214.48 
4217.55 
4220.62 
4223.69 
4226.76 
4229.83 
4232.90 
4235.97 
4239.04 
4242.11 
4245.18 
4248.24 
4251.31 
4254.38 
4257.45 
4260.52 
4263.58 
4266.65 
4269.72 
4272.79 
4275.85 
4278.92 
4281.99 
4285.05 
4288.12 
4291.18 
4294.25 
4297.32 
4300.38 
4303.45 
4306.51 
4309.58 
4312.64 
4315.71 
4318.77 
4321.83 
4324.90 
4327.96 
4331.03 
4334.09 
4337.15 
4340.22 
4343.28 
4346.34 
4349.40 
4352.47 
4355.53 
4358.59 
4361.65 
4364.71 
4367.78 
4370.84 
4373.90 
4376.96 
4380.02 
4383.08 
4386.14 
4389.20 
4392.26 
4395.32 
4398.38 
4401.44 
4404.50 
4407.56 
4410.62 
4413.68 
4416.73 
4419.79 
4422.85 
4425.91 
4428.96 
4432.02 
4435.08 
4438.14 
4441.19 
4444.25 
4447.31 
4450.36 
4453.42 
4456.47 
4459.53 
4462.58 
4465.64 
4468.69 
4471.75 
4474.80 
4477.86 
4480.91 
4483.96 
4487.02 
4490.07 
4493.12 
4496.18 
4499.23 
4502.28 
4505.33 
4508.38 
4511.44 
4514.49 
4517.54 
4520.59 
4523.64 
4526.69 
4529.74 
4532.79 
4535.84 
4538.89 
4541.94 
4544.99 
4548.04 
4551.08 
4554.13 
4557.18 
4560.23 
4563.28 
4566.32 
4569.37 
4572.42 
4575.46 
4578.51 
4581.56 
4584.60 
4587.65 
4590.69 
4593.74 
4596.78 
4599.83 
4602.87 
4605.92 
4608.96 
4612.00 
4615.05 
4618.09 
4621.13 
4624.17 
4627.22 
4630.26 
4633.30 
4636.34 
4639.38 
4642.42 
4645.46 
4648.51 
4651.55 
4654.59 
4657.62 
4660.66 
4663.70 
4666.74 
4669.78 
4672.82 
4675.86 
4678.89 
4681.93 
4684.97 
4688.01 
4691.04 
4694.08 
4697.11 
4700.15 
4703.19 
4706.22 
4709.26 
4712.29 
4715.32 
4718.36 
4721.39 
4724.43 
4727.46 
4730.49 
4733.52 
4736.56 
4739.59 
4742.62 
4745.65 
4748.68 
4751.71 
4754.74 
4757.77 
4760.80 
4763.83 
4766.86 
4769.89 
4772.92 
4775.95 
4778.98 
4782.01 
4785.03 
4788.06 
4791.09 
4794.11 
4797.14 
4800.17 
4803.19 
4806.22 
4809.24 
4812.27 
