# Wavelength table for fos,red,prism
     1349.17
     1349.74
     1350.31
     1350.89
     1351.46
     1352.04
     1352.62
      1353.2
     1353.79
     1354.37
     1354.96
     1355.55
     1356.14
     1356.74
     1357.34
     1357.94
     1358.54
     1359.14
     1359.75
     1360.36
     1360.97
     1361.58
      1362.2
     1362.82
     1363.44
     1364.06
     1364.69
     1365.31
     1365.94
     1366.58
     1367.21
     1367.85
     1368.49
     1369.13
     1369.78
     1370.43
     1371.08
     1371.73
     1372.39
     1373.05
     1373.71
     1374.37
     1375.04
     1375.71
     1376.38
     1377.05
     1377.73
     1378.41
      1379.1
     1379.78
     1380.47
     1381.16
     1381.86
     1382.55
     1383.25
     1383.96
     1384.66
     1385.37
     1386.08
      1386.8
     1387.51
     1388.23
     1388.96
     1389.68
     1390.41
     1391.15
     1391.88
     1392.62
     1393.36
     1394.11
     1394.86
     1395.61
     1396.37
     1397.12
     1397.88
     1398.65
     1399.42
     1400.19
     1400.96
     1401.74
     1402.52
     1403.31
      1404.1
     1404.89
     1405.68
     1406.48
     1407.29
     1408.09
      1408.9
     1409.71
     1410.53
     1411.35
     1412.18
       1413.
     1413.84
     1414.67
     1415.51
     1416.35
      1417.2
     1418.05
      1418.9
     1419.76
     1420.62
     1421.49
     1422.36
     1423.24
     1424.11
       1425.
     1425.88
     1426.77
     1427.67
     1428.57
     1429.47
     1430.38
     1431.29
     1432.21
     1433.13
     1434.05
     1434.98
     1435.91
     1436.85
     1437.79
     1438.74
     1439.69
     1440.65
     1441.61
     1442.58
     1443.55
     1444.52
      1445.5
     1446.49
     1447.48
     1448.47
     1449.47
     1450.47
     1451.48
      1452.5
     1453.52
     1454.54
     1455.57
      1456.6
     1457.64
     1458.69
     1459.74
      1460.8
     1461.86
     1462.92
       1464.
     1465.07
     1466.16
     1467.25
     1468.34
     1469.44
     1470.55
     1471.66
     1472.77
      1473.9
     1475.03
     1476.16
      1477.3
     1478.45
      1479.6
     1480.76
     1481.93
      1483.1
     1484.28
     1485.46
     1486.65
     1487.85
     1489.05
     1490.26
     1491.48
      1492.7
     1493.93
     1495.17
     1496.41
     1497.67
     1498.92
     1500.19
     1501.46
     1502.74
     1504.02
     1505.32
     1506.62
     1507.93
     1509.24
     1510.57
      1511.9
     1513.23
     1514.58
     1515.93
     1517.29
     1518.66
     1520.04
     1521.43
     1522.82
     1524.22
     1525.63
     1527.05
     1528.48
     1529.91
     1531.35
     1532.81
     1534.27
     1535.74
     1537.21
      1538.7
      1540.2
      1541.7
     1543.22
     1544.74
     1546.28
     1547.82
     1549.37
     1550.93
      1552.5
     1554.09
     1555.68
     1557.28
     1558.89
     1560.51
     1562.14
     1563.79
     1565.44
      1567.1
     1568.78
     1570.46
     1572.16
     1573.86
     1575.58
     1577.31
     1579.05
      1580.8
     1582.56
     1584.34
     1586.13
     1587.92
     1589.74
     1591.56
     1593.39
     1595.24
      1597.1
     1598.97
     1600.86
     1602.76
     1604.67
     1606.59
     1608.53
     1610.48
     1612.45
     1614.43
     1616.42
     1618.42
     1620.45
     1622.48
     1624.53
     1626.59
     1628.67
     1630.77
     1632.88
       1635.
     1637.14
      1639.3
     1641.47
     1643.66
     1645.86
     1648.08
     1650.31
     1652.57
     1654.84
     1657.13
     1659.43
     1661.75
     1664.09
     1666.45
     1668.82
     1671.22
     1673.63
     1676.06
     1678.51
     1680.98
     1683.47
     1685.98
     1688.51
     1691.06
     1693.63
     1696.21
     1698.83
     1701.46
     1704.11
     1706.78
     1709.48
      1712.2
     1714.94
     1717.71
     1720.49
      1723.3
     1726.14
       1729.
     1731.88
     1734.79
     1737.72
     1740.67
     1743.66
     1746.67
      1749.7
     1752.76
     1755.85
     1758.97
     1762.11
     1765.28
     1768.48
     1771.71
     1774.97
     1778.25
     1781.57
     1784.92
      1788.3
     1791.71
     1795.15
     1798.63
     1802.13
     1805.67
     1809.25
     1812.85
      1816.5
     1820.17
     1823.89
     1827.64
     1831.42
     1835.24
     1839.11
       1843.
     1846.94
     1850.92
     1854.94
       1859.
      1863.1
     1867.24
     1871.43
     1875.65
     1879.93
     1884.24
     1888.61
     1893.02
     1897.47
     1901.98
     1906.53
     1911.13
     1915.79
     1920.49
     1925.25
     1930.05
     1934.92
     1939.83
     1944.81
     1949.83
     1954.92
     1960.07
     1965.27
     1970.54
     1975.86
     1981.25
     1986.71
     1992.23
     1997.82
     2003.47
     2009.19
     2014.99
     2020.85
     2026.79
      2032.8
     2038.89
     2045.05
      2051.3
     2057.62
     2064.03
     2070.52
      2077.1
     2083.76
     2090.51
     2097.36
     2104.29
     2111.32
     2118.45
     2125.68
       2133.
     2140.43
     2147.97
     2155.61
     2163.36
     2171.23
     2179.21
     2187.31
     2195.53
     2203.87
     2212.34
     2220.94
     2229.67
     2238.54
     2247.54
     2256.69
     2265.99
     2275.43
     2285.03
     2294.78
      2304.7
     2314.78
     2325.03
     2335.46
     2346.07
     2356.86
     2367.84
     2379.01
     2390.39
     2401.97
     2413.76
     2425.77
     2438.01
     2450.48
     2463.18
     2476.13
     2489.34
      2502.8
     2516.54
     2530.55
     2544.85
     2559.45
     2574.35
     2589.57
     2605.12
     2621.01
     2637.25
     2653.85
     2670.83
      2688.2
     2705.98
     2724.18
     2742.82
     2761.91
     2781.48
     2801.53
      2822.1
     2843.21
     2864.87
     2887.11
     2909.96
     2933.44
     2957.58
     2982.41
     3007.98
      3034.3
     3061.42
     3089.38
     3118.22
     3147.99
     3178.73
      3210.5
     3243.36
     3277.36
     3312.58
     3349.09
     3386.95
     3426.27
     3467.12
     3509.61
     3553.84
     3599.94
     3648.03
     3698.26
     3750.78
     3805.77
      3863.4
      3923.9
     3987.49
     4054.43
     4125.01
     4199.55
      4278.4
     4361.97
     4450.71
     4545.14
     4645.83
     4753.44
     4868.72
     4992.53
     5125.86
     5269.85
     5425.82
     5595.29
     5780.06
     5982.23
     6204.29
     6449.16
     6720.35
     7022.07
     7359.38
     7738.43
     8166.75
     8653.62
     9210.54
     9851.93
    10596.01
    11466.01
    12491.93
    13712.85
