# Wavelength table for fos,red,g570h
    4592.14
    4596.54
    4600.94
    4605.35
    4609.75
    4614.15
    4618.55
    4622.95
    4627.35
    4631.75
    4636.15
    4640.55
    4644.95
    4649.35
    4653.76
    4658.16
    4662.56
    4666.96
    4671.36
    4675.76
    4680.17
    4684.57
    4688.97
    4693.37
    4697.77
    4702.18
    4706.58
    4710.98
    4715.38
    4719.79
    4724.19
    4728.59
      4733.
     4737.4
     4741.8
     4746.2
    4750.61
    4755.01
    4759.41
    4763.82
    4768.22
    4772.63
    4777.03
    4781.43
    4785.84
    4790.24
    4794.64
    4799.05
    4803.45
    4807.86
    4812.26
    4816.67
    4821.07
    4825.48
    4829.88
    4834.28
    4838.69
    4843.09
     4847.5
     4851.9
    4856.31
    4860.72
    4865.12
    4869.53
    4873.93
    4878.34
    4882.74
    4887.15
    4891.55
    4895.96
    4900.37
    4904.77
    4909.18
    4913.58
    4917.99
     4922.4
     4926.8
    4931.21
    4935.62
    4940.02
    4944.43
    4948.84
    4953.24
    4957.65
    4962.06
    4966.47
    4970.87
    4975.28
    4979.69
    4984.09
     4988.5
    4992.91
    4997.32
    5001.72
    5006.13
    5010.54
    5014.95
    5019.36
    5023.76
    5028.17
    5032.58
    5036.99
     5041.4
    5045.81
    5050.22
    5054.62
    5059.03
    5063.44
    5067.85
    5072.26
    5076.67
    5081.08
    5085.49
     5089.9
     5094.3
    5098.71
    5103.12
    5107.53
    5111.94
    5116.35
    5120.76
    5125.17
    5129.58
    5133.99
     5138.4
    5142.81
    5147.22
    5151.63
    5156.04
    5160.45
    5164.86
    5169.27
    5173.68
     5178.1
    5182.51
    5186.92
    5191.33
    5195.74
    5200.15
    5204.56
    5208.97
    5213.38
    5217.79
    5222.21
    5226.62
    5231.03
    5235.44
    5239.85
    5244.26
    5248.67
    5253.09
     5257.5
    5261.91
    5266.32
    5270.73
    5275.15
    5279.56
    5283.97
    5288.38
     5292.8
    5297.21
    5301.62
    5306.03
    5310.45
    5314.86
    5319.27
    5323.69
     5328.1
    5332.51
    5336.92
    5341.34
    5345.75
    5350.16
    5354.58
    5358.99
     5363.4
    5367.82
    5372.23
    5376.65
    5381.06
    5385.47
    5389.89
     5394.3
    5398.71
    5403.13
    5407.54
    5411.96
    5416.37
    5420.79
     5425.2
    5429.61
    5434.03
    5438.44
    5442.86
    5447.27
    5451.69
     5456.1
    5460.52
    5464.93
    5469.35
    5473.76
    5478.18
    5482.59
    5487.01
    5491.42
    5495.84
    5500.25
    5504.67
    5509.08
     5513.5
    5517.92
    5522.33
    5526.75
    5531.16
    5535.58
      5540.
    5544.41
    5548.83
    5553.24
    5557.66
    5562.08
    5566.49
    5570.91
    5575.33
    5579.74
    5584.16
    5588.57
    5592.99
    5597.41
    5601.83
    5606.24
    5610.66
    5615.08
    5619.49
    5623.91
    5628.33
    5632.74
    5637.16
    5641.58
      5646.
    5650.41
    5654.83
    5659.25
    5663.67
    5668.08
     5672.5
    5676.92
    5681.34
    5685.76
    5690.17
    5694.59
    5699.01
    5703.43
    5707.85
    5712.26
    5716.68
     5721.1
    5725.52
    5729.94
    5734.36
    5738.77
    5743.19
    5747.61
    5752.03
    5756.45
    5760.87
    5765.29
     5769.7
    5774.12
    5778.54
    5782.96
    5787.38
     5791.8
    5796.22
    5800.64
    5805.06
    5809.48
     5813.9
    5818.32
    5822.74
    5827.16
    5831.57
    5835.99
    5840.41
    5844.83
    5849.25
    5853.67
    5858.09
    5862.51
    5866.93
    5871.35
    5875.77
    5880.19
    5884.61
    5889.03
    5893.45
    5897.88
     5902.3
    5906.72
    5911.14
    5915.56
    5919.98
     5924.4
    5928.82
    5933.24
    5937.66
    5942.08
     5946.5
    5950.92
    5955.34
    5959.77
    5964.19
    5968.61
    5973.03
    5977.45
    5981.87
    5986.29
    5990.71
    5995.14
    5999.56
    6003.98
     6008.4
    6012.82
    6017.24
    6021.66
    6026.09
    6030.51
    6034.93
    6039.35
    6043.77
     6048.2
    6052.62
    6057.04
    6061.46
    6065.88
    6070.31
    6074.73
    6079.15
    6083.57
      6088.
    6092.42
    6096.84
    6101.26
    6105.69
    6110.11
    6114.53
    6118.95
    6123.38
     6127.8
    6132.22
    6136.64
    6141.07
    6145.49
    6149.91
    6154.34
    6158.76
    6163.18
     6167.6
    6172.03
    6176.45
    6180.87
     6185.3
    6189.72
    6194.14
    6198.57
    6202.99
    6207.41
    6211.84
    6216.26
    6220.69
    6225.11
    6229.53
    6233.96
    6238.38
     6242.8
    6247.23
    6251.65
    6256.08
     6260.5
    6264.92
    6269.35
    6273.77
     6278.2
    6282.62
    6287.04
    6291.47
    6295.89
    6300.32
    6304.74
    6309.17
    6313.59
    6318.01
    6322.44
    6326.86
    6331.29
    6335.71
    6340.14
    6344.56
    6348.99
    6353.41
    6357.84
    6362.26
    6366.69
    6371.11
    6375.54
    6379.96
    6384.39
    6388.81
    6393.24
    6397.66
    6402.09
    6406.51
    6410.94
    6415.36
    6419.79
    6424.21
    6428.64
    6433.06
    6437.49
    6441.91
    6446.34
    6450.76
    6455.19
    6459.61
    6464.04
    6468.47
    6472.89
    6477.32
    6481.74
    6486.17
    6490.59
    6495.02
    6499.45
    6503.87
     6508.3
    6512.72
    6517.15
    6521.58
      6526.
    6530.43
    6534.85
    6539.28
    6543.71
    6548.13
    6552.56
    6556.98
    6561.41
    6565.84
    6570.26
    6574.69
    6579.12
    6583.54
    6587.97
     6592.4
    6596.82
    6601.25
    6605.67
     6610.1
    6614.53
    6618.95
    6623.38
    6627.81
    6632.23
    6636.66
    6641.09
    6645.51
    6649.94
    6654.37
     6658.8
    6663.22
    6667.65
    6672.08
     6676.5
    6680.93
    6685.36
    6689.78
    6694.21
    6698.64
    6703.07
    6707.49
    6711.92
    6716.35
    6720.77
     6725.2
    6729.63
    6734.06
    6738.48
    6742.91
    6747.34
    6751.77
    6756.19
    6760.62
    6765.05
    6769.48
     6773.9
    6778.33
    6782.76
    6787.19
    6791.61
    6796.04
    6800.47
     6804.9
    6809.32
    6813.75
    6818.18
    6822.61
    6827.03
    6831.46
    6835.89
    6840.32
    6844.75
    6849.17
