# Wavelength table for fos,red,g780h
     6301.6
    6307.35
    6313.11
    6318.87
    6324.63
    6330.39
    6336.14
     6341.9
    6347.66
    6353.42
    6359.18
    6364.94
     6370.7
    6376.46
    6382.22
    6387.98
    6393.74
     6399.5
    6405.26
    6411.03
    6416.79
    6422.55
    6428.31
    6434.07
    6439.83
     6445.6
    6451.36
    6457.12
    6462.89
    6468.65
    6474.41
    6480.18
    6485.94
     6491.7
    6497.47
    6503.23
      6509.
    6514.76
    6520.53
    6526.29
    6532.06
    6537.82
    6543.59
    6549.35
    6555.12
    6560.89
    6566.65
    6572.42
    6578.18
    6583.95
    6589.72
    6595.49
    6601.25
    6607.02
    6612.79
    6618.56
    6624.32
    6630.09
    6635.86
    6641.63
     6647.4
    6653.17
    6658.94
    6664.71
    6670.48
    6676.25
    6682.02
    6687.79
    6693.56
    6699.33
     6705.1
    6710.87
    6716.64
    6722.41
    6728.18
    6733.95
    6739.72
    6745.49
    6751.27
    6757.04
    6762.81
    6768.58
    6774.36
    6780.13
     6785.9
    6791.67
    6797.45
    6803.22
    6808.99
    6814.77
    6820.54
    6826.32
    6832.09
    6837.86
    6843.64
    6849.41
    6855.19
    6860.96
    6866.74
    6872.51
    6878.29
    6884.06
    6889.84
    6895.62
    6901.39
    6907.17
    6912.94
    6918.72
     6924.5
    6930.27
    6936.05
    6941.83
     6947.6
    6953.38
    6959.16
    6964.94
    6970.71
    6976.49
    6982.27
    6988.05
    6993.83
    6999.61
    7005.38
    7011.16
    7016.94
    7022.72
     7028.5
    7034.28
    7040.06
    7045.84
    7051.62
     7057.4
    7063.18
    7068.96
    7074.74
    7080.52
     7086.3
    7092.08
    7097.86
    7103.64
    7109.42
    7115.21
    7120.99
    7126.77
    7132.55
    7138.33
    7144.11
     7149.9
    7155.68
    7161.46
    7167.24
    7173.03
    7178.81
    7184.59
    7190.37
    7196.16
    7201.94
    7207.72
    7213.51
    7219.29
    7225.07
    7230.86
    7236.64
    7242.43
    7248.21
      7254.
    7259.78
    7265.56
    7271.35
    7277.13
    7282.92
     7288.7
    7294.49
    7300.27
    7306.06
    7311.85
    7317.63
    7323.42
     7329.2
    7334.99
    7340.78
    7346.56
    7352.35
    7358.13
    7363.92
    7369.71
    7375.49
    7381.28
    7387.07
    7392.86
    7398.64
    7404.43
    7410.22
    7416.01
    7421.79
    7427.58
    7433.37
    7439.16
    7444.94
    7450.73
    7456.52
    7462.31
     7468.1
    7473.89
    7479.68
    7485.46
    7491.25
    7497.04
    7502.83
    7508.62
    7514.41
     7520.2
    7525.99
    7531.78
    7537.57
    7543.36
    7549.15
    7554.94
    7560.73
    7566.52
    7572.31
     7578.1
    7583.89
    7589.68
    7595.47
    7601.26
    7607.05
    7612.84
    7618.64
    7624.43
    7630.22
    7636.01
     7641.8
    7647.59
    7653.38
    7659.18
    7664.97
    7670.76
    7676.55
    7682.34
    7688.14
    7693.93
    7699.72
    7705.51
    7711.31
     7717.1
    7722.89
    7728.68
    7734.48
    7740.27
    7746.06
    7751.86
    7757.65
    7763.44
    7769.24
    7775.03
    7780.82
    7786.62
    7792.41
     7798.2
      7804.
    7809.79
    7815.58
    7821.38
    7827.17
    7832.97
    7838.76
    7844.56
    7850.35
    7856.14
    7861.94
    7867.73
    7873.53
    7879.32
    7885.12
    7890.91
    7896.71
     7902.5
     7908.3
    7914.09
    7919.89
    7925.68
    7931.48
    7937.27
    7943.07
    7948.86
    7954.66
    7960.46
    7966.25
    7972.05
    7977.84
    7983.64
    7989.44
    7995.23
    8001.03
    8006.82
    8012.62
    8018.42
    8024.21
    8030.01
     8035.8
     8041.6
     8047.4
    8053.19
    8058.99
    8064.79
    8070.58
    8076.38
    8082.18
    8087.98
    8093.77
    8099.57
    8105.37
    8111.16
    8116.96
    8122.76
    8128.56
    8134.35
    8140.15
    8145.95
    8151.74
    8157.54
    8163.34
    8169.14
    8174.93
    8180.73
    8186.53
    8192.33
    8198.13
    8203.92
    8209.72
    8215.52
    8221.32
    8227.12
    8232.91
    8238.71
    8244.51
    8250.31
    8256.11
     8261.9
     8267.7
     8273.5
     8279.3
     8285.1
     8290.9
    8296.69
    8302.49
    8308.29
    8314.09
    8319.89
    8325.69
    8331.49
    8337.28
    8343.08
    8348.88
    8354.68
    8360.48
    8366.28
    8372.08
    8377.88
    8383.68
    8389.47
    8395.27
    8401.07
    8406.87
    8412.67
    8418.47
    8424.27
    8430.07
    8435.87
    8441.67
    8447.47
    8453.26
    8459.06
    8464.86
    8470.66
    8476.46
    8482.26
    8488.06
    8493.86
    8499.66
    8505.46
    8511.26
    8517.06
    8522.86
    8528.66
    8534.46
    8540.25
    8546.05
    8551.85
    8557.65
    8563.45
    8569.25
    8575.05
    8580.85
    8586.65
    8592.45
    8598.25
    8604.05
    8609.85
    8615.65
    8621.45
    8627.25
    8633.05
    8638.85
    8644.65
    8650.45
    8656.25
    8662.05
    8667.85
    8673.65
    8679.44
    8685.24
    8691.04
    8696.84
    8702.64
    8708.44
    8714.24
    8720.04
    8725.84
    8731.64
    8737.44
    8743.24
    8749.04
    8754.84
    8760.64
    8766.44
    8772.24
    8778.04
    8783.84
    8789.64
    8795.44
    8801.24
    8807.04
    8812.84
    8818.64
    8824.44
    8830.24
    8836.03
    8841.83
    8847.63
    8853.43
    8859.23
    8865.03
    8870.83
    8876.63
    8882.43
    8888.23
    8894.03
    8899.83
    8905.63
    8911.43
    8917.23
    8923.03
    8928.83
    8934.62
    8940.42
    8946.22
    8952.02
    8957.82
    8963.62
    8969.42
    8975.22
    8981.02
    8986.82
    8992.62
    8998.41
    9004.21
    9010.01
    9015.81
    9021.61
    9027.41
    9033.21
    9039.01
    9044.81
     9050.6
     9056.4
     9062.2
      9068.
     9073.8
     9079.6
     9085.4
     9091.2
    9096.99
    9102.79
    9108.59
    9114.39
    9120.19
    9125.99
    9131.78
    9137.58
    9143.38
    9149.18
    9154.98
    9160.78
    9166.57
    9172.37
    9178.17
    9183.97
    9189.77
    9195.56
    9201.36
    9207.16
    9212.96
    9218.75
    9224.55
    9230.35
    9236.15
    9241.94
    9247.74
    9253.54
    9259.34
