# Wavelength table for fos,red,g650l
       1.19
      26.21
      51.22
      76.24
     101.25
     126.27
     151.28
     176.29
      201.3
     226.31
     251.32
     276.32
     301.33
     326.33
     351.34
     376.34
     401.34
     426.34
     451.34
     476.34
     501.34
     526.34
     551.33
     576.33
     601.32
     626.31
     651.31
      676.3
     701.29
     726.28
     751.27
     776.25
     801.24
     826.23
     851.21
      876.2
     901.18
     926.16
     951.15
     976.13
    1001.11
    1026.09
    1051.07
    1076.05
    1101.02
      1126.
    1150.98
    1175.95
    1200.93
     1225.9
    1250.87
    1275.84
    1300.82
    1325.79
    1350.76
    1375.73
     1400.7
    1425.67
    1450.63
     1475.6
    1500.57
    1525.53
     1550.5
    1575.46
    1600.43
    1625.39
    1650.36
    1675.32
    1700.28
    1725.24
    1750.21
    1775.17
    1800.13
    1825.09
    1850.05
      1875.
    1899.96
    1924.92
    1949.88
    1974.84
    1999.79
    2024.75
     2049.7
    2074.66
    2099.62
    2124.57
    2149.52
    2174.48
    2199.43
    2224.39
    2249.34
    2274.29
    2299.24
     2324.2
    2349.15
     2374.1
    2399.05
      2424.
    2448.95
     2473.9
    2498.85
     2523.8
    2548.75
     2573.7
    2598.65
     2623.6
    2648.55
     2673.5
    2698.45
     2723.4
    2748.35
     2773.3
    2798.24
    2823.19
    2848.14
    2873.09
    2898.04
    2922.98
    2947.93
    2972.88
    2997.83
    3022.77
    3047.72
    3072.67
    3097.62
    3122.56
    3147.51
    3172.46
    3197.41
    3222.35
     3247.3
    3272.25
     3297.2
    3322.14
    3347.09
    3372.04
    3396.99
    3421.94
    3446.88
    3471.83
    3496.78
    3521.73
    3546.68
    3571.63
    3596.58
    3621.53
    3646.48
    3671.43
    3696.38
    3721.33
    3746.28
    3771.23
    3796.18
    3821.13
    3846.08
    3871.03
    3895.98
    3920.94
    3945.89
    3970.84
    3995.79
    4020.75
     4045.7
    4070.66
    4095.61
    4120.56
    4145.52
    4170.48
    4195.43
    4220.39
    4245.34
     4270.3
    4295.26
    4320.22
    4345.18
    4370.13
    4395.09
    4420.05
    4445.01
    4469.98
    4494.94
     4519.9
    4544.86
    4569.82
    4594.79
    4619.75
    4644.72
    4669.68
    4694.65
    4719.61
    4744.58
    4769.55
    4794.51
    4819.48
    4844.45
    4869.42
    4894.39
    4919.36
    4944.34
    4969.31
    4994.28
    5019.26
    5044.23
    5069.21
    5094.18
    5119.16
    5144.14
    5169.11
    5194.09
    5219.07
    5244.05
    5269.03
    5294.02
      5319.
    5343.98
    5368.97
    5393.95
    5418.94
    5443.93
    5468.91
     5493.9
    5518.89
    5543.88
    5568.87
    5593.87
    5618.86
    5643.85
    5668.85
    5693.84
    5718.84
    5743.84
    5768.84
    5793.84
    5818.84
    5843.84
    5868.84
    5893.85
    5918.85
    5943.86
    5968.86
    5993.87
    6018.88
    6043.89
     6068.9
    6093.91
    6118.93
    6143.94
    6168.96
    6193.97
    6218.99
    6244.01
    6269.03
    6294.05
    6319.07
     6344.1
    6369.12
    6394.15
    6419.18
     6444.2
    6469.23
    6494.26
     6519.3
    6544.33
    6569.36
     6594.4
    6619.44
    6644.48
    6669.51
    6694.56
     6719.6
    6744.64
    6769.69
    6794.73
    6819.78
    6844.83
    6869.88
    6894.93
    6919.98
    6945.04
    6970.09
    6995.15
    7020.21
    7045.27
    7070.33
    7095.39
    7120.46
    7145.53
    7170.59
    7195.66
    7220.73
     7245.8
    7270.88
    7295.95
    7321.03
    7346.11
    7371.19
    7396.27
    7421.35
    7446.43
    7471.52
    7496.61
     7521.7
    7546.79
    7571.88
    7596.97
    7622.07
    7647.17
    7672.26
    7697.36
    7722.47
    7747.57
    7772.68
    7797.78
    7822.89
      7848.
    7873.12
    7898.23
    7923.35
    7948.46
    7973.58
     7998.7
    8023.83
    8048.95
    8074.08
    8099.21
    8124.34
    8149.47
     8174.6
    8199.74
    8224.88
    8250.02
    8275.16
     8300.3
    8325.44
    8350.59
    8375.74
    8400.89
    8426.04
     8451.2
    8476.36
    8501.51
    8526.68
    8551.84
      8577.
    8602.17
    8627.34
    8652.51
    8677.68
    8702.86
    8728.03
    8753.21
    8778.39
    8803.57
    8828.76
    8853.95
    8879.14
    8904.33
