# Wavelength table for fos,blue,g130h
1090.38 
1091.38 
1092.38 
1093.37 
1094.37 
1095.37 
1096.37 
1097.36 
1098.36 
1099.36 
1100.35 
1101.35 
1102.35 
1103.35 
1104.35 
1105.34 
1106.34 
1107.34 
1108.34 
1109.34 
1110.33 
1111.33 
1112.33 
1113.33 
1114.33 
1115.33 
1116.33 
1117.33 
1118.32 
1119.32 
1120.32 
1121.32 
1122.32 
1123.32 
1124.32 
1125.32 
1126.32 
1127.32 
1128.32 
1129.32 
1130.32 
1131.32 
1132.32 
1133.32 
1134.32 
1135.32 
1136.32 
1137.32 
1138.32 
1139.32 
1140.32 
1141.32 
1142.33 
1143.33 
1144.33 
1145.33 
1146.33 
1147.33 
1148.33 
1149.33 
1150.34 
1151.34 
1152.34 
1153.34 
1154.34 
1155.34 
1156.35 
1157.35 
1158.35 
1159.35 
1160.36 
1161.36 
1162.36 
1163.36 
1164.37 
1165.37 
1166.37 
1167.37 
1168.38 
1169.38 
1170.38 
1171.38 
1172.39 
1173.39 
1174.39 
1175.40 
1176.40 
1177.40 
1178.41 
1179.41 
1180.41 
1181.42 
1182.42 
1183.43 
1184.43 
1185.43 
1186.44 
1187.44 
1188.44 
1189.45 
1190.45 
1191.46 
1192.46 
1193.47 
1194.47 
1195.47 
1196.48 
1197.48 
1198.49 
1199.49 
1200.50 
1201.50 
1202.51 
1203.51 
1204.52 
1205.52 
1206.53 
1207.53 
1208.54 
1209.54 
1210.55 
1211.55 
1212.56 
1213.56 
1214.57 
1215.57 
1216.58 
1217.58 
1218.59 
1219.59 
1220.60 
1221.60 
1222.61 
1223.62 
1224.62 
1225.63 
1226.63 
1227.64 
1228.64 
1229.65 
1230.66 
1231.66 
1232.67 
1233.67 
1234.68 
1235.69 
1236.69 
1237.70 
1238.71 
1239.71 
1240.72 
1241.72 
1242.73 
1243.74 
1244.74 
1245.75 
1246.76 
1247.76 
1248.77 
1249.78 
1250.78 
1251.79 
1252.80 
1253.80 
1254.81 
1255.82 
1256.82 
1257.83 
1258.84 
1259.84 
1260.85 
1261.86 
1262.86 
1263.87 
1264.88 
1265.89 
1266.89 
1267.90 
1268.91 
1269.91 
1270.92 
1271.93 
1272.93 
1273.94 
1274.95 
1275.96 
1276.96 
1277.97 
1278.98 
1279.99 
1280.99 
1282.00 
1283.01 
1284.01 
1285.02 
1286.03 
1287.04 
1288.04 
1289.05 
1290.06 
1291.07 
1292.07 
1293.08 
1294.09 
1295.10 
1296.10 
1297.11 
1298.12 
1299.13 
1300.13 
1301.14 
1302.15 
1303.16 
1304.16 
1305.17 
1306.18 
1307.19 
1308.19 
1309.20 
1310.21 
1311.22 
1312.22 
1313.23 
1314.24 
1315.25 
1316.25 
1317.26 
1318.27 
1319.28 
1320.29 
1321.29 
1322.30 
1323.31 
1324.32 
1325.32 
1326.33 
1327.34 
1328.35 
1329.35 
1330.36 
1331.37 
1332.38 
1333.38 
1334.39 
1335.40 
1336.41 
1337.41 
1338.42 
1339.43 
1340.44 
1341.44 
1342.45 
1343.46 
1344.47 
1345.47 
1346.48 
1347.49 
1348.50 
1349.50 
1350.51 
1351.52 
1352.53 
1353.53 
1354.54 
1355.55 
1356.56 
1357.56 
1358.57 
1359.58 
1360.58 
1361.59 
1362.60 
1363.61 
1364.61 
1365.62 
1366.63 
1367.63 
1368.64 
1369.65 
1370.66 
1371.66 
1372.67 
1373.68 
1374.68 
1375.69 
1376.70 
1377.70 
1378.71 
1379.72 
1380.73 
1381.73 
1382.74 
1383.75 
1384.75 
1385.76 
1386.77 
1387.77 
1388.78 
1389.79 
1390.79 
1391.80 
1392.80 
1393.81 
1394.82 
1395.82 
1396.83 
1397.84 
1398.84 
1399.85 
1400.86 
1401.86 
1402.87 
1403.87 
1404.88 
1405.89 
1406.89 
1407.90 
1408.90 
1409.91 
1410.92 
1411.92 
1412.93 
1413.93 
1414.94 
1415.94 
1416.95 
1417.96 
1418.96 
1419.97 
1420.97 
1421.98 
1422.98 
1423.99 
1424.99 
1426.00 
1427.00 
1428.01 
1429.01 
1430.02 
1431.02 
1432.03 
1433.03 
1434.04 
1435.04 
1436.05 
1437.05 
1438.06 
1439.06 
1440.07 
1441.07 
1442.07 
1443.08 
1444.08 
1445.09 
1446.09 
1447.10 
1448.10 
1449.10 
1450.11 
1451.11 
1452.12 
1453.12 
1454.12 
1455.13 
1456.13 
1457.13 
1458.14 
1459.14 
1460.14 
1461.15 
1462.15 
1463.15 
1464.16 
1465.16 
1466.16 
1467.17 
1468.17 
1469.17 
1470.18 
1471.18 
1472.18 
1473.18 
1474.19 
1475.19 
1476.19 
1477.19 
1478.20 
1479.20 
1480.20 
1481.20 
1482.20 
1483.21 
1484.21 
1485.21 
1486.21 
1487.21 
1488.21 
1489.22 
1490.22 
1491.22 
1492.22 
1493.22 
1494.22 
1495.22 
1496.22 
1497.23 
1498.23 
1499.23 
1500.23 
1501.23 
1502.23 
1503.23 
1504.23 
1505.23 
1506.23 
1507.23 
1508.23 
1509.23 
1510.23 
1511.23 
1512.23 
1513.23 
1514.23 
1515.23 
1516.23 
1517.23 
1518.23 
1519.23 
1520.22 
1521.22 
1522.22 
1523.22 
1524.22 
1525.22 
1526.22 
1527.22 
1528.21 
1529.21 
1530.21 
1531.21 
1532.21 
1533.20 
1534.20 
1535.20 
1536.20 
1537.20 
1538.19 
1539.19 
1540.19 
1541.18 
1542.18 
1543.18 
1544.18 
1545.17 
1546.17 
1547.17 
1548.16 
1549.16 
1550.15 
1551.15 
1552.15 
1553.14 
1554.14 
1555.13 
1556.13 
1557.13 
1558.12 
1559.12 
1560.11 
1561.11 
1562.10 
1563.10 
1564.09 
1565.09 
1566.08 
1567.08 
1568.07 
1569.06 
1570.06 
1571.05 
1572.05 
1573.04 
1574.04 
1575.03 
1576.02 
1577.02 
1578.01 
1579.00 
1580.00 
1580.99 
1581.98 
1582.97 
1583.97 
1584.96 
1585.95 
1586.94 
1587.94 
1588.93 
1589.92 
1590.91 
1591.90 
1592.90 
1593.89 
1594.88 
1595.87 
1596.86 
1597.85 
1598.84 
1599.83 
1600.83 
1601.82 
1602.81 
