# Wavelength table for fos,blue,g650l
19.05   
44.19   
69.33   
94.48   
119.63  
144.78  
169.94  
195.10  
220.26  
245.42  
270.59  
295.76  
320.93  
346.10  
371.28  
396.46  
421.64  
446.82  
472.01  
497.20  
522.39  
547.58  
572.78  
597.98  
623.18  
648.38  
673.58  
698.79  
724.00  
749.21  
774.43  
799.64  
824.86  
850.08  
875.30  
900.53  
925.75  
950.98  
976.21  
1001.44 
1026.68 
1051.91 
1077.15 
1102.39 
1127.63 
1152.87 
1178.12 
1203.37 
1228.62 
1253.87 
1279.12 
1304.37 
1329.63 
1354.88 
1380.14 
1405.40 
1430.66 
1455.93 
1481.19 
1506.46 
1531.73 
1557.00 
1582.27 
1607.54 
1632.81 
1658.09 
1683.36 
1708.64 
1733.92 
1759.20 
1784.48 
1809.76 
1835.05 
1860.33 
1885.62 
1910.91 
1936.19 
1961.48 
1986.77 
2012.07 
2037.36 
2062.65 
2087.95 
2113.24 
2138.54 
2163.84 
2189.13 
2214.43 
2239.73 
2265.03 
2290.34 
2315.64 
2340.94 
2366.24 
2391.55 
2416.85 
2442.16 
2467.47 
2492.77 
2518.08 
2543.39 
2568.70 
2594.01 
2619.32 
2644.63 
2669.94 
2695.25 
2720.56 
2745.87 
2771.18 
2796.50 
2821.81 
2847.12 
2872.44 
2897.75 
2923.06 
2948.38 
2973.69 
2999.01 
3024.32 
3049.63 
3074.95 
3100.26 
3125.58 
3150.89 
3176.21 
3201.52 
3226.84 
3252.15 
3277.47 
3302.78 
3328.10 
3353.41 
3378.72 
3404.04 
3429.35 
3454.66 
3479.98 
3505.29 
3530.60 
3555.91 
3581.23 
3606.54 
3631.85 
3657.16 
3682.47 
3707.78 
3733.09 
3758.40 
3783.70 
3809.01 
3834.32 
3859.62 
3884.93 
3910.23 
3935.54 
3960.84 
3986.14 
4011.44 
4036.75 
4062.05 
4087.35 
4112.64 
4137.94 
4163.24 
4188.53 
4213.83 
4239.12 
4264.42 
4289.71 
4315.00 
4340.29 
4365.58 
4390.87 
4416.15 
4441.44 
4466.72 
4492.00 
4517.29 
4542.57 
4567.85 
4593.12 
4618.40 
4643.68 
4668.95 
4694.22 
4719.49 
4744.76 
4770.03 
4795.30 
4820.57 
4845.83 
4871.09 
4896.35 
4921.61 
4946.87 
4972.13 
4997.38 
5022.63 
5047.88 
5073.13 
5098.38 
5123.63 
5148.87 
5174.11 
5199.35 
5224.59 
5249.83 
5275.06 
5300.30 
5325.53 
5350.76 
5375.98 
5401.21 
5426.43 
5451.65 
5476.87 
5502.09 
5527.30 
5552.52 
5577.73 
5602.93 
5628.14 
5653.34 
5678.54 
5703.74 
5728.94 
5754.13 
5779.33 
5804.52 
5829.70 
5854.89 
5880.07 
5905.25 
5930.43 
5955.60 
5980.78 
6005.95 
6031.11 
6056.28 
6081.44 
6106.60 
6131.76 
6156.91 
6182.06 
6207.21 
6232.36 
6257.50 
6282.64 
6307.78 
6332.91 
6358.04 
6383.17 
6408.30 
6433.42 
6458.54 
6483.66 
6508.77 
6533.88 
6558.99 
6584.09 
6609.20 
6634.29 
6659.39 
6684.48 
6709.57 
6734.66 
6759.74 
6784.82 
6809.89 
6834.97 
6860.04 
6885.10 
6910.16 
6935.22 
6960.28 
6985.33 
7010.38 
7035.43 
7060.47 
7085.51 
7110.54 
7135.57 
7160.60 
7185.62 
7210.64 
7235.66 
7260.67 
7285.68 
7310.69 
7335.69 
7360.69 
7385.68 
7410.67 
7435.66 
7460.64 
7485.62 
7510.59 
7535.56 
7560.53 
7585.49 
7610.45 
7635.41 
7660.36 
7685.30 
7710.25 
7735.18 
7760.12 
7785.05 
7809.97 
7834.90 
7859.81 
7884.73 
7909.64 
7934.54 
7959.44 
7984.34 
8009.23 
8034.11 
8059.00 
8083.87 
8108.75 
8133.62 
8158.48 
8183.34 
8208.20 
8233.05 
8257.89 
8282.74 
8307.57 
8332.41 
8357.23 
8382.06 
8406.87 
8431.69 
8456.50 
8481.30 
8506.10 
8530.89 
8555.68 
8580.47 
8605.25 
8630.02 
8654.79 
8679.55 
8704.31 
8729.07 
8753.82 
8778.56 
8803.30 
8828.03 
8852.76 
8877.49 
8902.20 
8926.92 
8951.63 
