# Wavelength table for hrs,g140l
1100.000 
1100.572 
1101.144 
1101.716 
1102.288 
1102.860 
1103.432 
1104.004 
1104.576 
1105.148 
1105.720 
1106.292 
1106.864 
1107.436 
1108.008 
1108.580 
1109.152 
1109.724 
1110.296 
1110.868 
1111.440 
1112.012 
1112.584 
1113.156 
1113.728 
1114.300 
1114.872 
1115.444 
1116.016 
1116.588 
1117.160 
1117.732 
1118.304 
1118.876 
1119.448 
1120.020 
1120.592 
1121.164 
1121.737 
1122.309 
1122.881 
1123.453 
1124.025 
1124.597 
1125.169 
1125.741 
1126.313 
1126.885 
1127.457 
1128.029 
1128.601 
1129.173 
1129.745 
1130.317 
1130.889 
1131.461 
1132.033 
1132.605 
1133.177 
1133.749 
1134.321 
1134.893 
1135.465 
1136.037 
1136.609 
1137.182 
1137.754 
1138.326 
1138.898 
1139.470 
1140.042 
1140.614 
1141.186 
1141.758 
1142.330 
1142.902 
1143.474 
1144.046 
1144.618 
1145.190 
1145.762 
1146.334 
1146.906 
1147.478 
1148.051 
1148.623 
1149.195 
1149.767 
1150.339 
1150.911 
1151.483 
1152.055 
1152.627 
1153.199 
1153.771 
1154.343 
1154.915 
1155.487 
1156.059 
1156.632 
1157.204 
1157.776 
1158.348 
1158.920 
1159.492 
1160.064 
1160.636 
1161.208 
1161.780 
1162.352 
1162.924 
1163.496 
1164.068 
1164.641 
1165.213 
1165.785 
1166.357 
1166.929 
1167.501 
1168.073 
1168.645 
1169.217 
1169.789 
1170.361 
1170.934 
1171.506 
1172.078 
1172.650 
1173.222 
1173.794 
1174.366 
1174.938 
1175.510 
1176.082 
1176.654 
1177.227 
1177.799 
1178.371 
1178.943 
1179.515 
1180.087 
1180.659 
1181.231 
1181.803 
1182.375 
1182.948 
1183.520 
1184.092 
1184.664 
1185.236 
1185.808 
1186.380 
1186.952 
1187.524 
1188.096 
1188.669 
1189.241 
1189.813 
1190.385 
1190.957 
1191.529 
1192.101 
1192.673 
1193.246 
1193.818 
1194.390 
1194.962 
1195.534 
1196.106 
1196.678 
1197.250 
1197.822 
1198.395 
1198.967 
1199.539 
1200.111 
1200.683 
1201.255 
1201.827 
1202.399 
1202.972 
1203.544 
1204.116 
1204.688 
1205.260 
1205.832 
1206.404 
1206.977 
1207.549 
1208.121 
1208.693 
1209.265 
1209.837 
1210.409 
1210.981 
1211.554 
1212.126 
1212.698 
1213.270 
1213.842 
1214.414 
1214.986 
1215.559 
1216.131 
1216.703 
1217.275 
1217.847 
1218.419 
1218.991 
1219.564 
1220.136 
1220.708 
1221.280 
1221.852 
1222.424 
1222.997 
1223.569 
1224.141 
1224.713 
1225.285 
1225.857 
1226.429 
1227.002 
1227.574 
1228.146 
1228.718 
1229.290 
1229.862 
1230.435 
1231.007 
1231.579 
1232.151 
1232.723 
1233.295 
1233.868 
1234.440 
1235.012 
1235.584 
1236.156 
1236.728 
1237.301 
1237.873 
1238.445 
1239.017 
1239.589 
1240.161 
1240.734 
1241.306 
1241.878 
1242.450 
1243.022 
1243.595 
1244.167 
1244.739 
1245.311 
1245.883 
1246.455 
1247.028 
1247.600 
1248.172 
1248.744 
1249.316 
1249.889 
1250.461 
1251.033 
1251.605 
1252.177 
1252.750 
1253.322 
1253.894 
1254.466 
1255.038 
1255.610 
1256.183 
1256.755 
1257.327 
1257.899 
1258.471 
1259.044 
1259.616 
1260.188 
1260.760 
1261.332 
1261.905 
1262.477 
1263.049 
1263.621 
1264.193 
1264.766 
1265.338 
1265.910 
1266.482 
1267.055 
1267.627 
1268.199 
1268.771 
1269.343 
1269.916 
1270.488 
1271.060 
1271.632 
1272.204 
1272.777 
1273.349 
1273.921 
1274.493 
1275.066 
1275.638 
1276.210 
1276.782 
1277.354 
1277.927 
1278.499 
1279.071 
1279.643 
1280.216 
1280.788 
1281.360 
1281.932 
1282.504 
1283.077 
1283.649 
1284.221 
1284.793 
1285.366 
1285.938 
1286.510 
1287.082 
1287.654 
1288.227 
1288.799 
1289.371 
1289.943 
1290.516 
1291.088 
1291.660 
1292.232 
1292.805 
1293.377 
1293.949 
1294.521 
1295.094 
1295.666 
1296.238 
1296.810 
1297.383 
1297.955 
1298.527 
1299.099 
1299.672 
1300.244 
1300.816 
1301.388 
1301.961 
1302.533 
1303.105 
1303.677 
1304.250 
1304.822 
1305.394 
1305.966 
1306.539 
1307.111 
1307.683 
1308.255 
1308.828 
1309.400 
1309.972 
1310.544 
1311.117 
1311.689 
1312.261 
1312.834 
1313.406 
1313.978 
1314.550 
1315.123 
1315.695 
1316.267 
1316.839 
1317.412 
1317.984 
1318.556 
1319.128 
1319.701 
1320.273 
1320.845 
1321.418 
1321.990 
1322.562 
1323.134 
1323.707 
1324.279 
1324.851 
1325.424 
1325.996 
1326.568 
1327.140 
1327.713 
1328.285 
1328.857 
1329.430 
1330.002 
1330.574 
1331.146 
1331.719 
1332.291 
1332.863 
1333.436 
1334.008 
1334.580 
1335.152 
1335.725 
1336.297 
1336.869 
1337.442 
1338.014 
1338.586 
1339.159 
1339.731 
1340.303 
1340.875 
1341.448 
1342.020 
1342.592 
1343.165 
1343.737 
1344.309 
1344.882 
1345.454 
1346.026 
1346.598 
1347.171 
1347.743 
1348.315 
1348.888 
1349.460 
1350.032 
1350.605 
1351.177 
1351.749 
1352.322 
1352.894 
1353.466 
1354.039 
1354.611 
1355.183 
1355.755 
1356.328 
1356.900 
1357.472 
1358.045 
1358.617 
1359.189 
1359.762 
1360.334 
1360.906 
1361.479 
1362.051 
1362.623 
1363.196 
1363.768 
1364.340 
1364.913 
1365.485 
1366.057 
1366.630 
1367.202 
1367.774 
1368.347 
1368.919 
1369.491 
1370.064 
1370.636 
1371.208 
1371.781 
1372.353 
1372.925 
1373.498 
1374.070 
1374.642 
1375.215 
1375.787 
1376.359 
1376.932 
1377.504 
1378.077 
1378.649 
1379.221 
1379.794 
1380.366 
1380.938 
1381.511 
1382.083 
1382.655 
1383.228 
1383.800 
1384.372 
1384.945 
1385.517 
1386.089 
1386.662 
1387.234 
1387.807 
1388.379 
1388.951 
1389.524 
1390.096 
1390.668 
1391.241 
1391.813 
1392.385 
1392.958 
1393.530 
1394.103 
1394.675 
1395.247 
1395.820 
1396.392 
1396.964 
1397.537 
1398.109 
1398.681 
1399.254 
1399.826 
1400.399 
1400.971 
1401.543 
1402.116 
1402.688 
1403.261 
1403.833 
1404.405 
1404.978 
1405.550 
1406.122 
1406.695 
1407.267 
1407.840 
1408.412 
1408.984 
1409.557 
1410.129 
1410.702 
1411.274 
1411.846 
1412.419 
1412.991 
1413.563 
1414.136 
1414.708 
1415.281 
1415.853 
1416.425 
1416.998 
1417.570 
1418.143 
1418.715 
1419.287 
1419.860 
1420.432 
1421.005 
1421.577 
1422.149 
1422.722 
1423.294 
1423.867 
1424.439 
1425.011 
1425.584 
1426.156 
1426.729 
1427.301 
1427.873 
1428.446 
1429.018 
1429.591 
1430.163 
1430.736 
1431.308 
1431.880 
1432.453 
1433.025 
1433.598 
1434.170 
1434.742 
1435.315 
1435.887 
1436.460 
1437.032 
1437.605 
1438.177 
1438.749 
1439.322 
1439.894 
1440.467 
1441.039 
1441.612 
1442.184 
1442.756 
1443.329 
1443.901 
1444.474 
1445.046 
1445.619 
1446.191 
1446.763 
1447.336 
1447.908 
1448.481 
1449.053 
1449.626 
1450.198 
1450.770 
1451.343 
1451.915 
1452.488 
1453.060 
1453.633 
1454.205 
1454.778 
1455.350 
1455.922 
1456.495 
1457.067 
1457.640 
1458.212 
1458.785 
1459.357 
1459.930 
1460.502 
1461.074 
1461.647 
1462.219 
1462.792 
1463.364 
1463.937 
1464.509 
1465.082 
1465.654 
1466.227 
1466.799 
1467.371 
1467.944 
1468.516 
1469.089 
1469.661 
1470.234 
1470.806 
1471.379 
1471.951 
1472.524 
1473.096 
1473.669 
1474.241 
1474.814 
1475.386 
1475.958 
1476.531 
1477.103 
1477.676 
1478.248 
1478.821 
1479.393 
1479.966 
1480.538 
1481.111 
1481.683 
1482.256 
1482.828 
1483.401 
1483.973 
1484.546 
1485.118 
1485.691 
1486.263 
1486.836 
1487.408 
1487.980 
1488.553 
1489.125 
1489.698 
1490.270 
1490.843 
1491.415 
1491.988 
1492.560 
1493.133 
1493.705 
1494.278 
1494.850 
1495.423 
1495.995 
1496.568 
1497.140 
1497.713 
1498.285 
1498.858 
1499.430 
1500.003 
1500.575 
1501.148 
1501.720 
1502.293 
1502.865 
1503.438 
1504.010 
1504.583 
1505.155 
1505.728 
1506.300 
1506.873 
1507.445 
1508.018 
1508.590 
1509.163 
1509.735 
1510.308 
1510.880 
1511.453 
1512.025 
1512.598 
1513.171 
1513.743 
1514.316 
1514.888 
1515.461 
1516.033 
1516.606 
1517.178 
1517.751 
1518.323 
1518.896 
1519.468 
1520.041 
1520.613 
1521.186 
1521.758 
1522.331 
1522.903 
1523.476 
1524.048 
1524.621 
1525.194 
1525.766 
1526.339 
1526.911 
1527.484 
1528.056 
1528.629 
1529.201 
1529.774 
1530.346 
1530.919 
1531.491 
1532.064 
1532.637 
1533.209 
1533.782 
1534.354 
1534.927 
1535.499 
1536.072 
1536.644 
1537.217 
1537.789 
1538.362 
1538.934 
1539.507 
1540.080 
1540.652 
1541.225 
1541.797 
1542.370 
1542.942 
1543.515 
1544.087 
1544.660 
1545.233 
1545.805 
1546.378 
1546.950 
1547.523 
1548.095 
1548.668 
1549.240 
1549.813 
1550.386 
1550.958 
1551.531 
1552.103 
1552.676 
1553.248 
1553.821 
1554.394 
1554.966 
1555.539 
1556.111 
1556.684 
1557.256 
1557.829 
1558.402 
1558.974 
1559.547 
1560.119 
1560.692 
1561.264 
1561.837 
1562.410 
1562.982 
1563.555 
1564.127 
1564.700 
1565.273 
1565.845 
1566.418 
1566.990 
1567.563 
1568.135 
1568.708 
1569.281 
1569.853 
1570.426 
1570.998 
1571.571 
1572.144 
1572.716 
1573.289 
1573.861 
1574.434 
1575.006 
1575.579 
1576.152 
1576.724 
1577.297 
1577.869 
1578.442 
1579.015 
1579.587 
1580.160 
1580.732 
1581.305 
1581.878 
1582.450 
1583.023 
1583.595 
1584.168 
1584.741 
1585.313 
1585.886 
1586.459 
1587.031 
1587.604 
1588.176 
1588.749 
1589.322 
1589.894 
1590.467 
1591.039 
1591.612 
1592.185 
1592.757 
1593.330 
1593.902 
1594.475 
1595.048 
1595.620 
1596.193 
1596.766 
1597.338 
1597.911 
1598.483 
1599.056 
1599.629 
1600.201 
1600.774 
1601.347 
1601.919 
1602.492 
1603.064 
1603.637 
1604.210 
1604.782 
1605.355 
1605.928 
1606.500 
1607.073 
1607.646 
1608.218 
1608.791 
1609.363 
1609.936 
1610.509 
1611.081 
1611.654 
1612.227 
1612.799 
1613.372 
1613.945 
1614.517 
1615.090 
1615.662 
1616.235 
1616.808 
1617.380 
1617.953 
1618.526 
1619.098 
1619.671 
1620.244 
1620.816 
1621.389 
1621.962 
1622.534 
1623.107 
1623.680 
1624.252 
1624.825 
1625.398 
1625.970 
1626.543 
1627.116 
1627.688 
1628.261 
1628.833 
1629.406 
1629.979 
1630.551 
1631.124 
1631.697 
1632.269 
1632.842 
1633.415 
1633.987 
1634.560 
1635.133 
1635.705 
1636.278 
1636.851 
1637.423 
1637.996 
1638.569 
1639.142 
1639.714 
1640.287 
1640.860 
1641.432 
1642.005 
1642.578 
1643.150 
1643.723 
1644.296 
1644.868 
1645.441 
1646.014 
1646.586 
1647.159 
1647.732 
1648.304 
1648.877 
1649.450 
1650.022 
1650.595 
1651.168 
1651.741 
1652.313 
1652.886 
1653.459 
1654.031 
1654.604 
1655.177 
1655.749 
1656.322 
1656.895 
1657.467 
1658.040 
1658.613 
1659.186 
1659.758 
1660.331 
1660.904 
1661.476 
1662.049 
1662.622 
1663.194 
1663.767 
1664.340 
1664.913 
1665.485 
1666.058 
1666.631 
1667.203 
1667.776 
1668.349 
1668.922 
1669.494 
1670.067 
1670.640 
1671.212 
1671.785 
1672.358 
1672.931 
1673.503 
1674.076 
1674.649 
1675.221 
1675.794 
1676.367 
1676.940 
1677.512 
1678.085 
1678.658 
1679.230 
1679.803 
1680.376 
1680.949 
1681.521 
1682.094 
1682.667 
1683.240 
1683.812 
1684.385 
1684.958 
1685.530 
1686.103 
1686.676 
1687.249 
1687.821 
1688.394 
1688.967 
1689.540 
1690.112 
1690.685 
1691.258 
1691.831 
1692.403 
1692.976 
1693.549 
1694.122 
1694.694 
1695.267 
1695.840 
1696.412 
1696.985 
1697.558 
1698.131 
1698.703 
1699.276 
1699.849 
1700.422 
1700.994 
1701.567 
1702.140 
1702.713 
1703.285 
1703.858 
1704.431 
1705.004 
1705.577 
1706.149 
1706.722 
1707.295 
1707.868 
1708.440 
1709.013 
1709.586 
1710.159 
1710.731 
1711.304 
1711.877 
1712.450 
1713.022 
1713.595 
1714.168 
1714.741 
1715.313 
1715.886 
1716.459 
1717.032 
1717.605 
1718.177 
1718.750 
1719.323 
1719.896 
1720.468 
1721.041 
1721.614 
1722.187 
1722.760 
1723.332 
1723.905 
1724.478 
1725.051 
1725.623 
1726.196 
1726.769 
1727.342 
1727.915 
1728.487 
1729.060 
1729.633 
1730.206 
1730.779 
1731.351 
1731.924 
1732.497 
1733.070 
1733.642 
1734.215 
1734.788 
1735.361 
1735.934 
1736.506 
1737.079 
1737.652 
1738.225 
1738.798 
1739.370 
1739.943 
1740.516 
1741.089 
1741.662 
1742.234 
1742.807 
1743.380 
1743.953 
1744.526 
1745.098 
1745.671 
1746.244 
1746.817 
1747.390 
1747.963 
1748.535 
1749.108 
1749.681 
1750.254 
1750.827 
1751.399 
1751.972 
1752.545 
1753.118 
1753.691 
1754.263 
1754.836 
1755.409 
1755.982 
1756.555 
1757.128 
1757.700 
1758.273 
1758.846 
1759.419 
1759.992 
1760.565 
1761.137 
1761.710 
1762.283 
1762.856 
1763.429 
1764.001 
1764.574 
1765.147 
1765.720 
1766.293 
1766.866 
1767.438 
1768.011 
1768.584 
1769.157 
1769.730 
1770.303 
1770.875 
1771.448 
1772.021 
1772.594 
1773.167 
1773.740 
1774.313 
1774.885 
1775.458 
1776.031 
1776.604 
1777.177 
1777.750 
1778.322 
1778.895 
1779.468 
1780.041 
1780.614 
1781.187 
1781.760 
1782.332 
1782.905 
1783.478 
1784.051 
1784.624 
1785.197 
1785.770 
1786.342 
1786.915 
1787.488 
1788.061 
1788.634 
1789.207 
1789.780 
1790.352 
1790.925 
1791.498 
1792.071 
1792.644 
1793.217 
1793.790 
1794.362 
1794.935 
1795.508 
1796.081 
1796.654 
1797.227 
1797.800 
1798.373 
1798.945 
1799.518 
1800.091 
1800.664 
1801.237 
1801.810 
1802.383 
1802.956 
1803.528 
1804.101 
1804.674 
1805.247 
1805.820 
1806.393 
1806.966 
1807.539 
1808.112 
1808.684 
1809.257 
1809.830 
1810.403 
1810.976 
1811.549 
1812.122 
1812.695 
1813.268 
1813.840 
1814.413 
1814.986 
1815.559 
1816.132 
1816.705 
1817.278 
1817.851 
1818.424 
1818.996 
1819.569 
1820.142 
1820.715 
1821.288 
1821.861 
1822.434 
1823.007 
1823.580 
1824.153 
1824.725 
1825.298 
1825.871 
1826.444 
1827.017 
1827.590 
1828.163 
1828.736 
1829.309 
1829.882 
1830.455 
1831.027 
1831.600 
1832.173 
1832.746 
1833.319 
1833.892 
1834.465 
1835.038 
1835.611 
1836.184 
1836.757 
1837.330 
1837.903 
1838.475 
1839.048 
1839.621 
1840.194 
1840.767 
1841.340 
1841.913 
1842.486 
1843.059 
1843.632 
1844.205 
1844.778 
1845.351 
1845.923 
1846.496 
1847.069 
1847.642 
1848.215 
1848.788 
1849.361 
1849.934 
1850.507 
1851.080 
1851.653 
1852.226 
1852.799 
1853.372 
1853.945 
1854.518 
1855.091 
1855.663 
1856.236 
1856.809 
1857.382 
1857.955 
1858.528 
1859.101 
1859.674 
1860.247 
1860.820 
1861.393 
1861.966 
1862.539 
1863.112 
1863.685 
1864.258 
1864.831 
1865.404 
1865.977 
1866.550 
1867.122 
1867.695 
1868.268 
1868.841 
1869.414 
1869.987 
1870.560 
1871.133 
1871.706 
1872.279 
1872.852 
1873.425 
1873.998 
1874.571 
1875.144 
1875.717 
1876.290 
1876.863 
1877.436 
1878.009 
1878.582 
1879.155 
1879.728 
1880.301 
1880.874 
1881.447 
1882.020 
1882.593 
1883.166 
1883.739 
1884.312 
1884.885 
1885.458 
1886.031 
1886.604 
1887.176 
1887.749 
1888.322 
1888.895 
1889.468 
1890.041 
1890.614 
1891.187 
1891.760 
1892.333 
1892.906 
1893.479 
1894.052 
1894.625 
1895.198 
1895.771 
1896.344 
1896.917 
1897.490 
1898.063 
1898.636 
1899.209 
1899.782 
