# Wavelength table for hrs,g140m
1100.000 
1100.056 
1100.112 
1100.168 
1100.224 
1100.280 
1100.336 
1100.392 
1100.448 
1100.504 
1100.560 
1100.616 
1100.672 
1100.728 
1100.784 
1100.840 
1100.896 
1100.952 
1101.008 
1101.064 
1101.120 
1101.176 
1101.232 
1101.288 
1101.344 
1101.400 
1101.456 
1101.512 
1101.568 
1101.624 
1101.680 
1101.736 
1101.792 
1101.848 
1101.904 
1101.960 
1102.016 
1102.072 
1102.128 
1102.184 
1102.240 
1102.296 
1102.352 
1102.408 
1102.464 
1102.520 
1102.576 
1102.632 
1102.688 
1102.744 
1102.800 
1102.856 
1102.912 
1102.968 
1103.024 
1103.080 
1103.136 
1103.192 
1103.248 
1103.304 
1103.360 
1103.415 
1103.471 
1103.527 
1103.583 
1103.639 
1103.695 
1103.751 
1103.807 
1103.863 
1103.919 
1103.975 
1104.031 
1104.087 
1104.143 
1104.199 
1104.255 
1104.311 
1104.367 
1104.423 
1104.479 
1104.535 
1104.591 
1104.647 
1104.703 
1104.759 
1104.815 
1104.871 
1104.927 
1104.983 
1105.039 
1105.095 
1105.151 
1105.207 
1105.263 
1105.319 
1105.375 
1105.431 
1105.487 
1105.543 
1105.599 
1105.655 
1105.711 
1105.767 
1105.823 
1105.879 
1105.934 
1105.990 
1106.046 
1106.102 
1106.158 
1106.214 
1106.270 
1106.326 
1106.382 
1106.438 
1106.494 
1106.550 
1106.606 
1106.662 
1106.718 
1106.774 
1106.830 
1106.886 
1106.942 
1106.998 
1107.054 
1107.110 
1107.166 
1107.222 
1107.278 
1107.334 
1107.390 
1107.446 
1107.502 
1107.558 
1107.614 
1107.669 
1107.725 
1107.781 
1107.837 
1107.893 
1107.949 
1108.005 
1108.061 
1108.117 
1108.173 
1108.229 
1108.285 
1108.341 
1108.397 
1108.453 
1108.509 
1108.565 
1108.621 
1108.677 
1108.733 
1108.789 
1108.845 
1108.901 
1108.957 
1109.013 
1109.068 
1109.124 
1109.180 
1109.236 
1109.292 
1109.348 
1109.404 
1109.460 
1109.516 
1109.572 
1109.628 
1109.684 
1109.740 
1109.796 
1109.852 
1109.908 
1109.964 
1110.020 
1110.076 
1110.132 
1110.188 
1110.243 
1110.299 
1110.355 
1110.411 
1110.467 
1110.523 
1110.579 
1110.635 
1110.691 
1110.747 
1110.803 
1110.859 
1110.915 
1110.971 
1111.027 
1111.083 
1111.139 
1111.195 
1111.251 
1111.306 
1111.362 
1111.418 
1111.474 
1111.530 
1111.586 
1111.642 
1111.698 
1111.754 
1111.810 
1111.866 
1111.922 
1111.978 
1112.034 
1112.090 
1112.146 
1112.202 
1112.258 
1112.313 
1112.369 
1112.425 
1112.481 
1112.537 
1112.593 
1112.649 
1112.705 
1112.761 
1112.817 
1112.873 
1112.929 
1112.985 
1113.041 
1113.097 
1113.153 
1113.208 
1113.264 
1113.320 
1113.376 
1113.432 
1113.488 
1113.544 
1113.600 
1113.656 
1113.712 
1113.768 
1113.824 
1113.880 
1113.936 
1113.992 
1114.047 
1114.103 
1114.159 
1114.215 
1114.271 
1114.327 
1114.383 
1114.439 
1114.495 
1114.551 
1114.607 
1114.663 
1114.719 
1114.775 
1114.831 
1114.886 
1114.942 
1114.998 
1115.054 
1115.110 
1115.166 
1115.222 
1115.278 
1115.334 
1115.390 
1115.446 
1115.502 
1115.558 
1115.613 
1115.669 
1115.725 
1115.781 
1115.837 
1115.893 
1115.949 
1116.005 
1116.061 
1116.117 
1116.173 
1116.229 
1116.285 
1116.340 
1116.396 
1116.452 
1116.508 
1116.564 
1116.620 
1116.676 
1116.732 
1116.788 
1116.844 
1116.900 
1116.956 
1117.012 
1117.067 
1117.123 
1117.179 
1117.235 
1117.291 
1117.347 
1117.403 
1117.459 
1117.515 
1117.571 
1117.627 
1117.683 
1117.738 
1117.794 
1117.850 
1117.906 
1117.962 
1118.018 
1118.074 
1118.130 
1118.186 
1118.242 
1118.298 
1118.353 
1118.409 
1118.465 
1118.521 
1118.577 
1118.633 
1118.689 
1118.745 
1118.801 
1118.857 
1118.913 
1118.968 
1119.024 
1119.080 
1119.136 
1119.192 
1119.248 
1119.304 
1119.360 
1119.416 
1119.472 
1119.528 
1119.583 
1119.639 
1119.695 
1119.751 
1119.807 
1119.863 
1119.919 
1119.975 
1120.031 
1120.087 
1120.143 
1120.198 
1120.254 
1120.310 
1120.366 
1120.422 
1120.478 
1120.534 
1120.590 
1120.646 
1120.702 
1120.757 
1120.813 
1120.869 
1120.925 
1120.981 
1121.037 
1121.093 
1121.149 
1121.205 
1121.261 
1121.316 
1121.372 
1121.428 
1121.484 
1121.540 
1121.596 
1121.652 
1121.708 
1121.764 
1121.819 
1121.875 
1121.931 
1121.987 
1122.043 
1122.099 
1122.155 
1122.211 
1122.267 
1122.323 
1122.378 
1122.434 
1122.490 
1122.546 
1122.602 
1122.658 
1122.714 
1122.770 
1122.826 
1122.881 
1122.937 
1122.993 
1123.049 
1123.105 
1123.161 
1123.217 
1123.273 
1123.329 
1123.384 
1123.440 
1123.496 
1123.552 
1123.608 
1123.664 
1123.720 
1123.776 
1123.832 
1123.887 
1123.943 
1123.999 
1124.055 
1124.111 
1124.167 
1124.223 
1124.279 
1124.334 
1124.390 
1124.446 
1124.502 
1124.558 
1124.614 
1124.670 
1124.726 
1124.782 
1124.837 
1124.893 
1124.949 
1125.005 
1125.061 
1125.117 
1125.173 
1125.229 
1125.284 
1125.340 
1125.396 
1125.452 
1125.508 
1125.564 
1125.620 
1125.676 
1125.731 
1125.787 
1125.843 
1125.899 
1125.955 
1126.011 
1126.067 
1126.123 
1126.178 
1126.234 
1126.290 
1126.346 
1126.402 
1126.458 
1126.514 
1126.570 
1126.625 
1126.681 
1126.737 
1126.793 
1126.849 
1126.905 
1126.961 
1127.017 
1127.072 
1127.128 
1127.184 
1127.240 
1127.296 
1127.352 
1127.408 
1127.463 
1127.519 
1127.575 
1127.631 
1127.687 
1127.743 
1127.799 
1127.855 
1127.910 
1127.966 
1128.022 
1128.078 
1128.134 
1128.190 
1128.246 
1128.301 
1128.357 
1128.413 
1128.469 
1128.525 
1128.581 
1128.637 
1128.692 
1128.748 
1128.804 
1128.860 
1128.916 
1128.972 
1129.028 
1129.083 
1129.139 
1129.195 
1129.251 
1129.307 
1129.363 
1129.419 
1129.475 
1129.530 
1129.586 
1129.642 
1129.698 
1129.754 
1129.810 
1129.866 
1129.921 
1129.977 
1130.033 
1130.089 
1130.145 
1130.201 
1130.256 
1130.312 
1130.368 
1130.424 
1130.480 
1130.536 
1130.592 
1130.647 
1130.703 
1130.759 
1130.815 
1130.871 
1130.927 
1130.983 
1131.038 
1131.094 
1131.150 
1131.206 
1131.262 
1131.318 
1131.374 
1131.429 
1131.485 
1131.541 
1131.597 
1131.653 
1131.709 
1131.764 
1131.820 
1131.876 
1131.932 
1131.988 
1132.044 
1132.100 
1132.155 
1132.211 
1132.267 
1132.323 
1132.379 
1132.435 
1132.490 
1132.546 
1132.602 
1132.658 
1132.714 
1132.770 
1132.825 
1132.881 
1132.937 
1132.993 
1133.049 
1133.105 
1133.161 
1133.216 
1133.272 
1133.328 
1133.384 
1133.440 
1133.496 
1133.551 
1133.607 
1133.663 
1133.719 
1133.775 
1133.831 
1133.886 
1133.942 
1133.998 
1134.054 
1134.110 
1134.166 
1134.221 
1134.277 
1134.333 
1134.389 
1134.445 
1134.501 
1134.556 
1134.612 
1134.668 
1134.724 
1134.780 
1134.836 
1134.891 
1134.947 
1135.003 
1135.059 
1135.115 
1135.171 
1135.226 
1135.282 
1135.338 
1135.394 
1135.450 
1135.506 
1135.561 
1135.617 
1135.673 
1135.729 
1135.785 
1135.841 
1135.896 
1135.952 
1136.008 
1136.064 
1136.120 
1136.175 
1136.231 
1136.287 
1136.343 
1136.399 
1136.455 
1136.510 
1136.566 
1136.622 
1136.678 
1136.734 
1136.790 
1136.845 
1136.901 
1136.957 
1137.013 
1137.069 
1137.124 
1137.180 
1137.236 
1137.292 
1137.348 
1137.404 
1137.459 
1137.515 
1137.571 
1137.627 
1137.683 
1137.738 
1137.794 
1137.850 
1137.906 
1137.962 
1138.018 
1138.073 
1138.129 
1138.185 
1138.241 
1138.297 
1138.352 
1138.408 
1138.464 
1138.520 
1138.576 
1138.632 
1138.687 
1138.743 
1138.799 
1138.855 
1138.911 
1138.966 
1139.022 
1139.078 
1139.134 
1139.190 
1139.245 
1139.301 
1139.357 
1139.413 
1139.469 
1139.525 
1139.580 
1139.636 
1139.692 
1139.748 
1139.804 
1139.859 
1139.915 
1139.971 
1140.027 
1140.083 
1140.138 
1140.194 
1140.250 
1140.306 
1140.362 
1140.417 
1140.473 
1140.529 
1140.585 
1140.641 
1140.696 
1140.752 
1140.808 
1140.864 
1140.920 
1140.975 
1141.031 
1141.087 
1141.143 
1141.199 
1141.254 
1141.310 
1141.366 
1141.422 
1141.478 
1141.533 
1141.589 
1141.645 
1141.701 
1141.757 
1141.812 
1141.868 
1141.924 
1141.980 
1142.036 
1142.091 
1142.147 
1142.203 
1142.259 
1142.315 
1142.370 
1142.426 
1142.482 
1142.538 
1142.594 
1142.649 
1142.705 
1142.761 
1142.817 
1142.873 
1142.928 
1142.984 
1143.040 
1143.096 
1143.152 
1143.207 
1143.263 
1143.319 
1143.375 
1143.430 
1143.486 
1143.542 
1143.598 
1143.654 
1143.709 
1143.765 
1143.821 
1143.877 
1143.933 
1143.988 
1144.044 
1144.100 
1144.156 
1144.212 
1144.267 
1144.323 
1144.379 
1144.435 
1144.490 
1144.546 
1144.602 
1144.658 
1144.714 
1144.769 
1144.825 
1144.881 
1144.937 
1144.993 
1145.048 
1145.104 
1145.160 
1145.216 
1145.271 
1145.327 
1145.383 
1145.439 
1145.495 
1145.550 
1145.606 
1145.662 
1145.718 
1145.773 
1145.829 
1145.885 
1145.941 
1145.997 
1146.052 
1146.108 
1146.164 
1146.220 
1146.275 
1146.331 
1146.387 
1146.443 
1146.499 
1146.554 
1146.610 
1146.666 
1146.722 
1146.777 
1146.833 
1146.889 
1146.945 
1147.001 
1147.056 
1147.112 
1147.168 
1147.224 
1147.279 
1147.335 
1147.391 
1147.447 
1147.502 
1147.558 
1147.614 
1147.670 
1147.726 
1147.781 
1147.837 
1147.893 
1147.949 
1148.004 
1148.060 
1148.116 
1148.172 
1148.227 
1148.283 
1148.339 
1148.395 
1148.451 
1148.506 
1148.562 
1148.618 
1148.674 
1148.729 
1148.785 
1148.841 
1148.897 
1148.952 
1149.008 
1149.064 
1149.120 
1149.175 
1149.231 
1149.287 
1149.343 
1149.399 
1149.454 
1149.510 
1149.566 
1149.622 
1149.677 
1149.733 
1149.789 
1149.845 
1149.900 
1149.956 
1150.012 
1150.068 
1150.123 
1150.179 
1150.235 
1150.291 
1150.346 
1150.402 
1150.458 
1150.514 
1150.569 
1150.625 
1150.681 
1150.737 
1150.792 
1150.848 
1150.904 
1150.960 
1151.015 
1151.071 
1151.127 
1151.183 
1151.238 
1151.294 
1151.350 
1151.406 
1151.461 
1151.517 
1151.573 
1151.629 
1151.684 
1151.740 
1151.796 
1151.852 
1151.907 
1151.963 
1152.019 
1152.075 
1152.130 
1152.186 
1152.242 
1152.298 
1152.353 
1152.409 
1152.465 
1152.521 
1152.576 
1152.632 
1152.688 
1152.744 
1152.799 
1152.855 
1152.911 
1152.967 
1153.022 
1153.078 
1153.134 
1153.190 
1153.245 
1153.301 
1153.357 
1153.413 
1153.468 
1153.524 
1153.580 
1153.636 
1153.691 
1153.747 
1153.803 
1153.859 
1153.914 
1153.970 
1154.026 
1154.082 
1154.137 
1154.193 
1154.249 
1154.304 
1154.360 
1154.416 
1154.472 
1154.527 
1154.583 
1154.639 
1154.695 
1154.750 
1154.806 
1154.862 
1154.918 
1154.973 
1155.029 
1155.085 
1155.140 
1155.196 
1155.252 
1155.308 
1155.363 
1155.419 
1155.475 
1155.531 
1155.586 
1155.642 
1155.698 
1155.754 
1155.809 
1155.865 
1155.921 
1155.976 
1156.032 
1156.088 
1156.144 
1156.199 
1156.255 
1156.311 
1156.367 
1156.422 
1156.478 
1156.534 
1156.589 
1156.645 
1156.701 
1156.757 
1156.812 
1156.868 
1156.924 
1156.980 
1157.035 
1157.091 
1157.147 
1157.202 
1157.258 
1157.314 
1157.370 
1157.425 
1157.481 
1157.537 
1157.593 
1157.648 
1157.704 
1157.760 
1157.815 
1157.871 
1157.927 
1157.983 
1158.038 
1158.094 
1158.150 
1158.205 
1158.261 
1158.317 
1158.373 
1158.428 
1158.484 
1158.540 
1158.595 
1158.651 
1158.707 
1158.763 
1158.818 
1158.874 
1158.930 
1158.985 
1159.041 
1159.097 
1159.153 
1159.208 
1159.264 
1159.320 
1159.375 
1159.431 
1159.487 
1159.543 
1159.598 
1159.654 
1159.710 
1159.765 
1159.821 
1159.877 
1159.933 
1159.988 
1160.044 
1160.100 
1160.155 
1160.211 
1160.267 
1160.323 
1160.378 
1160.434 
1160.490 
1160.545 
1160.601 
1160.657 
1160.712 
1160.768 
1160.824 
1160.880 
1160.935 
1160.991 
1161.047 
1161.102 
1161.158 
1161.214 
1161.270 
1161.325 
1161.381 
1161.437 
1161.492 
1161.548 
1161.604 
1161.659 
1161.715 
1161.771 
1161.827 
1161.882 
1161.938 
1161.994 
1162.049 
1162.105 
1162.161 
1162.216 
1162.272 
1162.328 
1162.384 
1162.439 
1162.495 
1162.551 
1162.606 
1162.662 
1162.718 
1162.773 
1162.829 
1162.885 
1162.941 
1162.996 
1163.052 
1163.108 
1163.163 
1163.219 
1163.275 
1163.330 
1163.386 
1163.442 
1163.497 
1163.553 
1163.609 
1163.665 
1163.720 
1163.776 
1163.832 
1163.887 
1163.943 
1163.999 
1164.054 
1164.110 
1164.166 
1164.221 
1164.277 
1164.333 
1164.389 
1164.444 
1164.500 
1164.556 
1164.611 
1164.667 
1164.723 
1164.778 
1164.834 
1164.890 
1164.945 
1165.001 
1165.057 
1165.112 
1165.168 
1165.224 
1165.280 
1165.335 
1165.391 
1165.447 
1165.502 
1165.558 
1165.614 
1165.669 
1165.725 
1165.781 
1165.836 
1165.892 
1165.948 
1166.003 
1166.059 
1166.115 
1166.170 
1166.226 
1166.282 
1166.337 
1166.393 
1166.449 
1166.505 
1166.560 
1166.616 
1166.672 
1166.727 
1166.783 
1166.839 
1166.894 
1166.950 
1167.006 
1167.061 
1167.117 
1167.173 
1167.228 
1167.284 
1167.340 
1167.395 
1167.451 
1167.507 
1167.562 
1167.618 
1167.674 
1167.729 
1167.785 
1167.841 
1167.896 
1167.952 
1168.008 
1168.063 
1168.119 
1168.175 
1168.230 
1168.286 
1168.342 
1168.397 
1168.453 
1168.509 
1168.564 
1168.620 
1168.676 
1168.731 
1168.787 
1168.843 
1168.898 
1168.954 
1169.010 
1169.065 
1169.121 
1169.177 
1169.232 
1169.288 
1169.344 
1169.399 
1169.455 
1169.511 
1169.566 
1169.622 
1169.678 
1169.733 
1169.789 
1169.845 
1169.900 
1169.956 
1170.012 
1170.067 
1170.123 
1170.179 
1170.234 
1170.290 
1170.346 
1170.401 
1170.457 
1170.513 
1170.568 
1170.624 
1170.680 
1170.735 
1170.791 
1170.847 
1170.902 
1170.958 
1171.014 
1171.069 
1171.125 
1171.181 
1171.236 
1171.292 
1171.348 
1171.403 
1171.459 
1171.514 
1171.570 
1171.626 
1171.681 
1171.737 
1171.793 
1171.848 
1171.904 
1171.960 
1172.015 
1172.071 
1172.127 
1172.182 
1172.238 
1172.294 
1172.349 
1172.405 
1172.461 
1172.516 
1172.572 
1172.627 
1172.683 
1172.739 
1172.794 
1172.850 
1172.906 
1172.961 
1173.017 
1173.073 
1173.128 
1173.184 
1173.240 
1173.295 
1173.351 
1173.407 
1173.462 
1173.518 
1173.573 
1173.629 
1173.685 
1173.740 
1173.796 
1173.852 
1173.907 
1173.963 
1174.019 
1174.074 
1174.130 
1174.186 
1174.241 
1174.297 
1174.352 
1174.408 
1174.464 
1174.519 
1174.575 
1174.631 
1174.686 
1174.742 
1174.798 
1174.853 
1174.909 
1174.965 
1175.020 
1175.076 
1175.131 
1175.187 
1175.243 
1175.298 
1175.354 
1175.410 
1175.465 
1175.521 
1175.577 
1175.632 
1175.688 
1175.743 
1175.799 
1175.855 
1175.910 
1175.966 
1176.022 
1176.077 
1176.133 
1176.188 
1176.244 
1176.300 
1176.355 
1176.411 
1176.467 
1176.522 
1176.578 
1176.634 
1176.689 
1176.745 
1176.800 
1176.856 
1176.912 
1176.967 
1177.023 
1177.079 
1177.134 
1177.190 
1177.245 
1177.301 
1177.357 
1177.412 
1177.468 
1177.524 
1177.579 
1177.635 
1177.690 
1177.746 
1177.802 
1177.857 
1177.913 
1177.969 
1178.024 
1178.080 
1178.135 
1178.191 
1178.247 
1178.302 
1178.358 
1178.414 
1178.469 
1178.525 
1178.580 
1178.636 
1178.692 
1178.747 
1178.803 
1178.858 
1178.914 
1178.970 
1179.025 
1179.081 
1179.137 
1179.192 
1179.248 
1179.303 
1179.359 
1179.415 
1179.470 
1179.526 
1179.581 
1179.637 
1179.693 
1179.748 
1179.804 
1179.860 
1179.915 
1179.971 
1180.026 
1180.082 
1180.138 
1180.193 
1180.249 
1180.304 
1180.360 
1180.416 
1180.471 
1180.527 
1180.583 
1180.638 
1180.694 
1180.749 
1180.805 
1180.861 
1180.916 
1180.972 
1181.027 
1181.083 
1181.139 
1181.194 
1181.250 
1181.305 
1181.361 
1181.417 
1181.472 
1181.528 
1181.583 
1181.639 
1181.695 
1181.750 
1181.806 
1181.861 
1181.917 
1181.973 
1182.028 
1182.084 
1182.139 
1182.195 
1182.251 
1182.306 
1182.362 
1182.417 
1182.473 
1182.529 
1182.584 
1182.640 
1182.695 
1182.751 
1182.807 
1182.862 
1182.918 
1182.973 
1183.029 
1183.085 
1183.140 
1183.196 
1183.251 
1183.307 
1183.363 
1183.418 
1183.474 
1183.529 
1183.585 
1183.641 
1183.696 
1183.752 
1183.807 
1183.863 
1183.919 
1183.974 
1184.030 
1184.085 
1184.141 
1184.197 
1184.252 
1184.308 
1184.363 
1184.419 
1184.475 
1184.530 
1184.586 
1184.641 
1184.697 
1184.753 
1184.808 
1184.864 
1184.919 
1184.975 
1185.030 
1185.086 
1185.142 
1185.197 
1185.253 
1185.308 
1185.364 
1185.420 
1185.475 
1185.531 
1185.586 
1185.642 
1185.697 
1185.753 
1185.809 
1185.864 
1185.920 
1185.975 
1186.031 
1186.087 
1186.142 
1186.198 
1186.253 
1186.309 
1186.364 
1186.420 
1186.476 
1186.531 
1186.587 
1186.642 
1186.698 
1186.754 
1186.809 
1186.865 
1186.920 
1186.976 
1187.031 
1187.087 
1187.143 
1187.198 
1187.254 
1187.309 
1187.365 
1187.421 
1187.476 
1187.532 
1187.587 
1187.643 
1187.698 
1187.754 
1187.810 
1187.865 
1187.921 
1187.976 
1188.032 
1188.087 
1188.143 
1188.199 
1188.254 
1188.310 
1188.365 
1188.421 
1188.476 
1188.532 
1188.588 
1188.643 
1188.699 
1188.754 
1188.810 
1188.865 
1188.921 
1188.977 
1189.032 
1189.088 
1189.143 
1189.199 
1189.254 
1189.310 
1189.366 
1189.421 
1189.477 
1189.532 
1189.588 
1189.643 
1189.699 
1189.755 
1189.810 
1189.866 
1189.921 
1189.977 
1190.032 
1190.088 
1190.143 
1190.199 
1190.255 
1190.310 
1190.366 
1190.421 
1190.477 
1190.532 
1190.588 
1190.644 
1190.699 
1190.755 
1190.810 
1190.866 
1190.921 
1190.977 
1191.032 
1191.088 
1191.144 
1191.199 
1191.255 
1191.310 
1191.366 
1191.421 
1191.477 
1191.532 
1191.588 
1191.644 
1191.699 
1191.755 
1191.810 
1191.866 
1191.921 
1191.977 
1192.032 
1192.088 
1192.144 
1192.199 
1192.255 
1192.310 
1192.366 
1192.421 
1192.477 
1192.532 
1192.588 
1192.644 
1192.699 
1192.755 
1192.810 
1192.866 
1192.921 
1192.977 
1193.032 
1193.088 
1193.143 
1193.199 
1193.255 
1193.310 
1193.366 
1193.421 
1193.477 
1193.532 
1193.588 
1193.643 
1193.699 
1193.755 
1193.810 
1193.866 
1193.921 
1193.977 
1194.032 
1194.088 
1194.143 
1194.199 
1194.254 
1194.310 
1194.366 
1194.421 
1194.477 
1194.532 
1194.588 
1194.643 
1194.699 
1194.754 
1194.810 
1194.865 
1194.921 
1194.976 
1195.032 
1195.088 
1195.143 
1195.199 
1195.254 
1195.310 
1195.365 
1195.421 
1195.476 
1195.532 
1195.587 
1195.643 
1195.698 
1195.754 
1195.810 
1195.865 
1195.921 
1195.976 
1196.032 
1196.087 
1196.143 
1196.198 
1196.254 
1196.309 
1196.365 
1196.420 
1196.476 
1196.531 
1196.587 
1196.643 
1196.698 
1196.754 
1196.809 
1196.865 
1196.920 
1196.976 
1197.031 
1197.087 
1197.142 
1197.198 
1197.253 
1197.309 
1197.364 
1197.420 
1197.476 
1197.531 
1197.587 
1197.642 
1197.698 
1197.753 
1197.809 
1197.864 
1197.920 
1197.975 
1198.031 
1198.086 
1198.142 
1198.197 
1198.253 
1198.308 
1198.364 
1198.419 
1198.475 
1198.530 
1198.586 
1198.642 
1198.697 
1198.753 
1198.808 
1198.864 
1198.919 
1198.975 
1199.030 
1199.086 
1199.141 
1199.197 
1199.252 
1199.308 
1199.363 
1199.419 
1199.474 
1199.530 
1199.585 
1199.641 
1199.696 
1199.752 
1199.807 
1199.863 
1199.918 
1199.974 
1200.030 
1200.085 
1200.141 
1200.196 
1200.252 
1200.307 
1200.363 
1200.418 
1200.474 
1200.529 
1200.585 
1200.640 
1200.696 
1200.751 
1200.807 
1200.862 
1200.918 
1200.973 
1201.029 
1201.084 
1201.140 
1201.195 
1201.251 
1201.306 
1201.362 
1201.417 
1201.473 
1201.528 
1201.584 
1201.639 
1201.695 
1201.750 
1201.806 
1201.861 
1201.917 
1201.972 
1202.028 
1202.083 
1202.139 
1202.194 
1202.250 
1202.305 
1202.361 
1202.416 
1202.472 
1202.527 
1202.583 
1202.638 
1202.694 
1202.749 
1202.805 
1202.860 
1202.916 
1202.971 
1203.027 
1203.082 
1203.138 
1203.193 
1203.249 
1203.304 
1203.360 
1203.415 
1203.471 
1203.526 
1203.582 
1203.637 
1203.693 
1203.748 
1203.804 
1203.859 
1203.915 
1203.970 
1204.026 
1204.081 
1204.137 
1204.192 
1204.248 
1204.303 
1204.359 
1204.414 
1204.470 
1204.525 
1204.581 
1204.636 
1204.692 
1204.747 
1204.803 
1204.858 
1204.914 
1204.969 
1205.025 
1205.080 
1205.136 
1205.191 
1205.247 
1205.302 
1205.358 
1205.413 
1205.469 
1205.524 
1205.580 
1205.635 
1205.691 
1205.746 
1205.802 
1205.857 
1205.913 
1205.968 
1206.024 
1206.079 
1206.135 
1206.190 
1206.246 
1206.301 
1206.357 
1206.412 
1206.468 
1206.523 
1206.578 
1206.634 
1206.689 
1206.745 
1206.800 
1206.856 
1206.911 
1206.967 
1207.022 
1207.078 
1207.133 
1207.189 
1207.244 
1207.300 
1207.355 
1207.411 
1207.466 
1207.522 
1207.577 
1207.633 
1207.688 
1207.744 
1207.799 
1207.855 
1207.910 
1207.965 
1208.021 
1208.076 
1208.132 
1208.187 
1208.243 
1208.298 
1208.354 
1208.409 
1208.465 
1208.520 
1208.576 
1208.631 
1208.687 
1208.742 
1208.798 
1208.853 
1208.909 
1208.964 
1209.019 
1209.075 
1209.130 
1209.186 
1209.241 
1209.297 
1209.352 
1209.408 
1209.463 
1209.519 
1209.574 
1209.630 
1209.685 
1209.741 
1209.796 
1209.852 
1209.907 
1209.962 
1210.018 
1210.073 
1210.129 
1210.184 
1210.240 
1210.295 
1210.351 
1210.406 
1210.462 
1210.517 
1210.573 
1210.628 
1210.684 
1210.739 
1210.794 
1210.850 
1210.905 
1210.961 
1211.016 
1211.072 
1211.127 
1211.183 
1211.238 
1211.294 
1211.349 
1211.405 
1211.460 
1211.515 
1211.571 
1211.626 
1211.682 
1211.737 
1211.793 
1211.848 
1211.904 
1211.959 
1212.015 
1212.070 
1212.126 
1212.181 
1212.236 
1212.292 
1212.347 
1212.403 
1212.458 
1212.514 
1212.569 
1212.625 
1212.680 
1212.736 
1212.791 
1212.846 
1212.902 
1212.957 
1213.013 
1213.068 
1213.124 
1213.179 
1213.235 
1213.290 
1213.345 
1213.401 
1213.456 
1213.512 
1213.567 
1213.623 
1213.678 
1213.734 
1213.789 
1213.845 
1213.900 
1213.955 
1214.011 
1214.066 
1214.122 
1214.177 
1214.233 
1214.288 
1214.344 
1214.399 
1214.454 
1214.510 
1214.565 
1214.621 
1214.676 
1214.732 
1214.787 
1214.843 
1214.898 
1214.953 
1215.009 
1215.064 
1215.120 
1215.175 
1215.231 
1215.286 
1215.342 
1215.397 
1215.452 
1215.508 
1215.563 
1215.619 
1215.674 
1215.730 
1215.785 
1215.840 
1215.896 
1215.951 
1216.007 
1216.062 
1216.118 
1216.173 
1216.229 
1216.284 
1216.339 
1216.395 
1216.450 
1216.506 
1216.561 
1216.617 
1216.672 
1216.727 
1216.783 
1216.838 
1216.894 
1216.949 
1217.005 
1217.060 
1217.116 
1217.171 
1217.226 
1217.282 
1217.337 
1217.393 
1217.448 
1217.504 
1217.559 
1217.614 
1217.670 
1217.725 
1217.781 
1217.836 
1217.892 
1217.947 
1218.002 
1218.058 
1218.113 
1218.169 
1218.224 
1218.280 
1218.335 
1218.390 
1218.446 
1218.501 
1218.557 
1218.612 
1218.668 
1218.723 
1218.778 
1218.834 
1218.889 
1218.945 
1219.000 
1219.055 
1219.111 
1219.166 
1219.222 
1219.277 
1219.333 
1219.388 
1219.443 
1219.499 
1219.554 
1219.610 
1219.665 
1219.721 
1219.776 
1219.831 
1219.887 
1219.942 
1219.998 
1220.053 
1220.108 
1220.164 
1220.219 
1220.275 
1220.330 
1220.386 
1220.441 
1220.496 
1220.552 
1220.607 
1220.663 
1220.718 
1220.773 
1220.829 
1220.884 
1220.940 
1220.995 
1221.051 
1221.106 
1221.161 
1221.217 
1221.272 
1221.328 
1221.383 
1221.438 
1221.494 
1221.549 
1221.605 
1221.660 
1221.715 
1221.771 
1221.826 
1221.882 
1221.937 
1221.993 
1222.048 
1222.103 
1222.159 
1222.214 
1222.270 
1222.325 
1222.380 
1222.436 
1222.491 
1222.547 
1222.602 
1222.657 
1222.713 
1222.768 
1222.824 
1222.879 
1222.934 
1222.990 
1223.045 
1223.101 
1223.156 
1223.211 
1223.267 
1223.322 
1223.378 
1223.433 
1223.488 
1223.544 
1223.599 
1223.655 
1223.710 
1223.765 
1223.821 
1223.876 
1223.932 
1223.987 
1224.042 
1224.098 
1224.153 
1224.209 
1224.264 
1224.319 
1224.375 
1224.430 
1224.486 
1224.541 
1224.596 
1224.652 
1224.707 
1224.763 
1224.818 
1224.873 
1224.929 
1224.984 
1225.040 
1225.095 
1225.150 
1225.206 
1225.261 
1225.317 
1225.372 
1225.427 
1225.483 
1225.538 
1225.594 
1225.649 
1225.704 
1225.760 
1225.815 
1225.870 
1225.926 
1225.981 
1226.037 
1226.092 
1226.147 
1226.203 
1226.258 
1226.314 
1226.369 
1226.424 
1226.480 
1226.535 
1226.591 
1226.646 
1226.701 
1226.757 
1226.812 
1226.867 
1226.923 
1226.978 
1227.034 
1227.089 
1227.144 
1227.200 
1227.255 
1227.311 
1227.366 
1227.421 
1227.477 
1227.532 
1227.587 
1227.643 
1227.698 
1227.754 
1227.809 
1227.864 
1227.920 
1227.975 
1228.030 
1228.086 
1228.141 
1228.197 
1228.252 
1228.307 
1228.363 
1228.418 
1228.473 
1228.529 
1228.584 
1228.640 
1228.695 
1228.750 
1228.806 
1228.861 
1228.917 
1228.972 
1229.027 
1229.083 
1229.138 
1229.193 
1229.249 
1229.304 
1229.359 
1229.415 
1229.470 
1229.526 
1229.581 
1229.636 
1229.692 
1229.747 
1229.802 
1229.858 
1229.913 
1229.969 
1230.024 
1230.079 
1230.135 
1230.190 
1230.245 
1230.301 
1230.356 
1230.412 
1230.467 
1230.522 
1230.578 
1230.633 
1230.688 
1230.744 
1230.799 
1230.854 
1230.910 
1230.965 
1231.021 
1231.076 
1231.131 
1231.187 
1231.242 
1231.297 
1231.353 
1231.408 
1231.463 
1231.519 
1231.574 
1231.630 
1231.685 
1231.740 
1231.796 
1231.851 
1231.906 
1231.962 
1232.017 
1232.072 
1232.128 
1232.183 
1232.239 
1232.294 
1232.349 
1232.405 
1232.460 
1232.515 
1232.571 
1232.626 
1232.681 
1232.737 
1232.792 
1232.847 
1232.903 
1232.958 
1233.014 
1233.069 
1233.124 
1233.180 
1233.235 
1233.290 
1233.346 
1233.401 
1233.456 
1233.512 
1233.567 
1233.622 
1233.678 
1233.733 
1233.788 
1233.844 
1233.899 
1233.955 
1234.010 
1234.065 
1234.121 
1234.176 
1234.231 
1234.287 
1234.342 
1234.397 
1234.453 
1234.508 
1234.563 
1234.619 
1234.674 
1234.729 
1234.785 
1234.840 
1234.895 
1234.951 
1235.006 
1235.061 
1235.117 
1235.172 
1235.227 
1235.283 
1235.338 
1235.394 
1235.449 
1235.504 
1235.560 
1235.615 
1235.670 
1235.726 
1235.781 
1235.836 
1235.892 
1235.947 
1236.002 
1236.058 
1236.113 
1236.168 
1236.224 
1236.279 
1236.334 
1236.390 
1236.445 
1236.500 
1236.556 
1236.611 
1236.666 
1236.722 
1236.777 
1236.832 
1236.888 
1236.943 
1236.998 
1237.054 
1237.109 
1237.164 
1237.220 
1237.275 
1237.330 
1237.386 
1237.441 
1237.496 
1237.552 
1237.607 
1237.662 
1237.718 
1237.773 
1237.828 
1237.884 
1237.939 
1237.994 
1238.050 
1238.105 
1238.160 
1238.216 
1238.271 
1238.326 
1238.382 
1238.437 
1238.492 
1238.548 
1238.603 
1238.658 
1238.714 
1238.769 
1238.824 
1238.880 
1238.935 
1238.990 
1239.046 
1239.101 
1239.156 
1239.212 
1239.267 
1239.322 
1239.378 
1239.433 
1239.488 
1239.544 
1239.599 
1239.654 
1239.709 
1239.765 
1239.820 
1239.875 
1239.931 
1239.986 
1240.041 
1240.097 
1240.152 
1240.207 
1240.263 
1240.318 
1240.373 
1240.429 
1240.484 
1240.539 
1240.595 
1240.650 
1240.705 
1240.761 
1240.816 
1240.871 
1240.927 
1240.982 
1241.037 
1241.092 
1241.148 
1241.203 
1241.258 
1241.314 
1241.369 
1241.424 
1241.480 
1241.535 
1241.590 
1241.646 
1241.701 
1241.756 
1241.812 
1241.867 
1241.922 
1241.977 
1242.033 
1242.088 
1242.143 
1242.199 
1242.254 
1242.309 
1242.365 
1242.420 
1242.475 
1242.531 
1242.586 
1242.641 
1242.696 
1242.752 
1242.807 
1242.862 
1242.918 
1242.973 
1243.028 
1243.084 
1243.139 
1243.194 
1243.250 
1243.305 
1243.360 
1243.415 
1243.471 
1243.526 
1243.581 
1243.637 
1243.692 
1243.747 
1243.803 
1243.858 
1243.913 
1243.969 
1244.024 
1244.079 
1244.134 
1244.190 
1244.245 
1244.300 
1244.356 
1244.411 
1244.466 
1244.522 
1244.577 
1244.632 
1244.687 
1244.743 
1244.798 
1244.853 
1244.909 
1244.964 
1245.019 
1245.074 
1245.130 
1245.185 
1245.240 
1245.296 
1245.351 
1245.406 
1245.462 
1245.517 
1245.572 
1245.627 
1245.683 
1245.738 
1245.793 
1245.849 
1245.904 
1245.959 
1246.014 
1246.070 
1246.125 
1246.180 
1246.236 
1246.291 
1246.346 
1246.402 
1246.457 
1246.512 
1246.567 
1246.623 
1246.678 
1246.733 
1246.789 
1246.844 
1246.899 
1246.954 
1247.010 
1247.065 
1247.120 
1247.176 
1247.231 
1247.286 
1247.341 
1247.397 
1247.452 
1247.507 
1247.563 
1247.618 
1247.673 
1247.728 
1247.784 
1247.839 
1247.894 
1247.950 
1248.005 
1248.060 
1248.115 
1248.171 
1248.226 
1248.281 
1248.336 
1248.392 
1248.447 
1248.502 
1248.558 
1248.613 
1248.668 
1248.723 
1248.779 
1248.834 
1248.889 
1248.945 
1249.000 
1249.055 
1249.110 
1249.166 
1249.221 
1249.276 
1249.331 
1249.387 
1249.442 
1249.497 
1249.553 
1249.608 
1249.663 
1249.718 
1249.774 
1249.829 
1249.884 
1249.939 
1249.995 
1250.050 
1250.105 
1250.161 
1250.216 
1250.271 
1250.326 
1250.382 
1250.437 
1250.492 
1250.547 
1250.603 
1250.658 
1250.713 
1250.769 
1250.824 
1250.879 
1250.934 
1250.990 
1251.045 
1251.100 
1251.155 
1251.211 
1251.266 
1251.321 
1251.376 
1251.432 
1251.487 
1251.542 
1251.598 
1251.653 
1251.708 
1251.763 
1251.819 
1251.874 
1251.929 
1251.984 
1252.040 
1252.095 
1252.150 
1252.205 
1252.261 
1252.316 
1252.371 
1252.426 
1252.482 
1252.537 
1252.592 
1252.648 
1252.703 
1252.758 
1252.813 
1252.869 
1252.924 
1252.979 
1253.034 
1253.090 
1253.145 
1253.200 
1253.255 
1253.311 
1253.366 
1253.421 
1253.476 
1253.532 
1253.587 
1253.642 
1253.697 
1253.753 
1253.808 
1253.863 
1253.918 
1253.974 
1254.029 
1254.084 
1254.139 
1254.195 
1254.250 
1254.305 
1254.360 
1254.416 
1254.471 
1254.526 
1254.581 
1254.637 
1254.692 
1254.747 
1254.802 
1254.858 
1254.913 
1254.968 
1255.023 
1255.079 
1255.134 
1255.189 
1255.244 
1255.300 
1255.355 
1255.410 
1255.465 
1255.521 
1255.576 
1255.631 
1255.686 
1255.742 
1255.797 
1255.852 
1255.907 
1255.963 
1256.018 
1256.073 
1256.128 
1256.184 
1256.239 
1256.294 
1256.349 
1256.405 
1256.460 
1256.515 
1256.570 
1256.625 
1256.681 
1256.736 
1256.791 
1256.846 
1256.902 
1256.957 
1257.012 
1257.067 
1257.123 
1257.178 
1257.233 
1257.288 
1257.344 
1257.399 
1257.454 
1257.509 
1257.565 
1257.620 
1257.675 
1257.730 
1257.785 
1257.841 
1257.896 
1257.951 
1258.006 
1258.062 
1258.117 
1258.172 
1258.227 
1258.283 
1258.338 
1258.393 
1258.448 
1258.503 
1258.559 
1258.614 
1258.669 
1258.724 
1258.780 
1258.835 
1258.890 
1258.945 
1259.001 
1259.056 
1259.111 
1259.166 
1259.221 
1259.277 
1259.332 
1259.387 
1259.442 
1259.498 
1259.553 
1259.608 
1259.663 
1259.718 
1259.774 
1259.829 
1259.884 
1259.939 
1259.995 
1260.050 
1260.105 
1260.160 
1260.215 
1260.271 
1260.326 
1260.381 
1260.436 
1260.492 
1260.547 
1260.602 
1260.657 
1260.712 
1260.768 
1260.823 
1260.878 
1260.933 
1260.989 
1261.044 
1261.099 
1261.154 
1261.209 
1261.265 
1261.320 
1261.375 
1261.430 
1261.486 
1261.541 
1261.596 
1261.651 
1261.706 
1261.762 
1261.817 
1261.872 
1261.927 
1261.982 
1262.038 
1262.093 
1262.148 
1262.203 
1262.259 
1262.314 
1262.369 
1262.424 
1262.479 
1262.535 
1262.590 
1262.645 
1262.700 
1262.755 
1262.811 
1262.866 
1262.921 
1262.976 
1263.031 
1263.087 
1263.142 
1263.197 
1263.252 
1263.307 
1263.363 
1263.418 
1263.473 
1263.528 
1263.584 
1263.639 
1263.694 
1263.749 
1263.804 
1263.860 
1263.915 
1263.970 
1264.025 
1264.080 
1264.136 
1264.191 
1264.246 
1264.301 
1264.356 
1264.412 
1264.467 
1264.522 
1264.577 
1264.632 
1264.688 
1264.743 
1264.798 
1264.853 
1264.908 
1264.964 
1265.019 
1265.074 
1265.129 
1265.184 
1265.240 
1265.295 
1265.350 
1265.405 
1265.460 
1265.516 
1265.571 
1265.626 
1265.681 
1265.736 
1265.792 
1265.847 
1265.902 
1265.957 
1266.012 
1266.068 
1266.123 
1266.178 
1266.233 
1266.288 
1266.343 
1266.399 
1266.454 
1266.509 
1266.564 
1266.619 
1266.675 
1266.730 
1266.785 
1266.840 
1266.895 
1266.951 
1267.006 
1267.061 
1267.116 
1267.171 
1267.227 
1267.282 
1267.337 
1267.392 
1267.447 
1267.502 
1267.558 
1267.613 
1267.668 
1267.723 
1267.778 
1267.834 
1267.889 
1267.944 
1267.999 
1268.054 
1268.109 
1268.165 
1268.220 
1268.275 
1268.330 
1268.385 
1268.441 
1268.496 
1268.551 
1268.606 
1268.661 
1268.716 
1268.772 
1268.827 
1268.882 
1268.937 
1268.992 
1269.048 
1269.103 
1269.158 
1269.213 
1269.268 
1269.323 
1269.379 
1269.434 
1269.489 
1269.544 
1269.599 
1269.655 
1269.710 
1269.765 
1269.820 
1269.875 
1269.930 
1269.986 
1270.041 
1270.096 
1270.151 
1270.206 
1270.261 
1270.317 
1270.372 
1270.427 
1270.482 
1270.537 
1270.592 
1270.648 
1270.703 
1270.758 
1270.813 
1270.868 
1270.923 
1270.979 
1271.034 
1271.089 
1271.144 
1271.199 
1271.255 
1271.310 
1271.365 
1271.420 
1271.475 
1271.530 
1271.586 
1271.641 
1271.696 
1271.751 
1271.806 
1271.861 
1271.917 
1271.972 
1272.027 
1272.082 
1272.137 
1272.192 
1272.247 
1272.303 
1272.358 
1272.413 
1272.468 
1272.523 
1272.578 
1272.634 
1272.689 
1272.744 
1272.799 
1272.854 
1272.909 
1272.965 
1273.020 
1273.075 
1273.130 
1273.185 
1273.240 
1273.296 
1273.351 
1273.406 
1273.461 
1273.516 
1273.571 
1273.626 
1273.682 
1273.737 
1273.792 
1273.847 
1273.902 
1273.957 
1274.013 
1274.068 
1274.123 
1274.178 
1274.233 
1274.288 
1274.343 
1274.399 
1274.454 
1274.509 
1274.564 
1274.619 
1274.674 
1274.730 
1274.785 
1274.840 
1274.895 
1274.950 
1275.005 
1275.060 
1275.116 
1275.171 
1275.226 
1275.281 
1275.336 
1275.391 
1275.447 
1275.502 
1275.557 
1275.612 
1275.667 
1275.722 
1275.777 
1275.833 
1275.888 
1275.943 
1275.998 
1276.053 
1276.108 
1276.163 
1276.219 
1276.274 
1276.329 
1276.384 
1276.439 
1276.494 
1276.549 
1276.605 
1276.660 
1276.715 
1276.770 
1276.825 
1276.880 
1276.935 
1276.991 
1277.046 
1277.101 
1277.156 
1277.211 
1277.266 
1277.321 
1277.377 
1277.432 
1277.487 
1277.542 
1277.597 
1277.652 
1277.707 
1277.762 
1277.818 
1277.873 
1277.928 
1277.983 
1278.038 
1278.093 
1278.148 
1278.204 
1278.259 
1278.314 
1278.369 
1278.424 
1278.479 
1278.534 
1278.589 
1278.645 
1278.700 
1278.755 
1278.810 
1278.865 
1278.920 
1278.975 
1279.031 
1279.086 
1279.141 
1279.196 
1279.251 
1279.306 
1279.361 
1279.416 
1279.472 
1279.527 
1279.582 
1279.637 
1279.692 
1279.747 
1279.802 
1279.857 
1279.913 
1279.968 
1280.023 
1280.078 
1280.133 
1280.188 
1280.243 
1280.298 
1280.354 
1280.409 
1280.464 
1280.519 
1280.574 
1280.629 
1280.684 
1280.739 
1280.795 
1280.850 
1280.905 
1280.960 
1281.015 
1281.070 
1281.125 
1281.180 
1281.236 
1281.291 
1281.346 
1281.401 
1281.456 
1281.511 
1281.566 
1281.621 
1281.676 
1281.732 
1281.787 
1281.842 
1281.897 
1281.952 
1282.007 
1282.062 
1282.117 
1282.173 
1282.228 
1282.283 
1282.338 
1282.393 
1282.448 
1282.503 
1282.558 
1282.613 
1282.669 
1282.724 
1282.779 
1282.834 
1282.889 
1282.944 
1282.999 
1283.054 
1283.109 
1283.165 
1283.220 
1283.275 
1283.330 
1283.385 
1283.440 
1283.495 
1283.550 
1283.605 
1283.660 
1283.716 
1283.771 
1283.826 
1283.881 
1283.936 
1283.991 
1284.046 
1284.101 
1284.156 
1284.212 
1284.267 
1284.322 
1284.377 
1284.432 
1284.487 
1284.542 
1284.597 
1284.652 
1284.707 
1284.763 
1284.818 
1284.873 
1284.928 
1284.983 
1285.038 
1285.093 
1285.148 
1285.203 
1285.258 
1285.314 
1285.369 
1285.424 
1285.479 
1285.534 
1285.589 
1285.644 
1285.699 
1285.754 
1285.809 
1285.865 
1285.920 
1285.975 
1286.030 
1286.085 
1286.140 
1286.195 
1286.250 
1286.305 
1286.360 
1286.416 
1286.471 
1286.526 
1286.581 
1286.636 
1286.691 
1286.746 
1286.801 
1286.856 
1286.911 
1286.966 
1287.022 
1287.077 
1287.132 
1287.187 
1287.242 
1287.297 
1287.352 
1287.407 
1287.462 
1287.517 
1287.572 
1287.628 
1287.683 
1287.738 
1287.793 
1287.848 
1287.903 
1287.958 
1288.013 
1288.068 
1288.123 
1288.178 
1288.233 
1288.289 
1288.344 
1288.399 
1288.454 
1288.509 
1288.564 
1288.619 
1288.674 
1288.729 
1288.784 
1288.839 
1288.894 
1288.950 
1289.005 
1289.060 
1289.115 
1289.170 
1289.225 
1289.280 
1289.335 
1289.390 
1289.445 
1289.500 
1289.555 
1289.611 
1289.666 
1289.721 
1289.776 
1289.831 
1289.886 
1289.941 
1289.996 
1290.051 
1290.106 
1290.161 
1290.216 
1290.271 
1290.327 
1290.382 
1290.437 
1290.492 
1290.547 
1290.602 
1290.657 
1290.712 
1290.767 
1290.822 
1290.877 
1290.932 
1290.987 
1291.042 
1291.098 
1291.153 
1291.208 
1291.263 
1291.318 
1291.373 
1291.428 
1291.483 
1291.538 
1291.593 
1291.648 
1291.703 
1291.758 
1291.813 
1291.869 
1291.924 
1291.979 
1292.034 
1292.089 
1292.144 
1292.199 
1292.254 
1292.309 
1292.364 
1292.419 
1292.474 
1292.529 
1292.584 
1292.639 
1292.694 
1292.750 
1292.805 
1292.860 
1292.915 
1292.970 
1293.025 
1293.080 
1293.135 
1293.190 
1293.245 
1293.300 
1293.355 
1293.410 
1293.465 
1293.520 
1293.575 
1293.631 
1293.686 
1293.741 
1293.796 
1293.851 
1293.906 
1293.961 
1294.016 
1294.071 
1294.126 
1294.181 
1294.236 
1294.291 
1294.346 
1294.401 
1294.456 
1294.511 
1294.566 
1294.622 
1294.677 
1294.732 
1294.787 
1294.842 
1294.897 
1294.952 
1295.007 
1295.062 
1295.117 
1295.172 
1295.227 
1295.282 
1295.337 
1295.392 
1295.447 
1295.502 
1295.557 
1295.612 
1295.667 
1295.723 
1295.778 
1295.833 
1295.888 
1295.943 
1295.998 
1296.053 
1296.108 
1296.163 
1296.218 
1296.273 
1296.328 
1296.383 
1296.438 
1296.493 
1296.548 
1296.603 
1296.658 
1296.713 
1296.768 
1296.823 
1296.878 
1296.934 
1296.989 
1297.044 
1297.099 
1297.154 
1297.209 
1297.264 
1297.319 
1297.374 
1297.429 
1297.484 
1297.539 
1297.594 
1297.649 
1297.704 
1297.759 
1297.814 
1297.869 
1297.924 
1297.979 
1298.034 
1298.089 
1298.144 
1298.199 
1298.254 
1298.310 
1298.365 
1298.420 
1298.475 
1298.530 
1298.585 
1298.640 
1298.695 
1298.750 
1298.805 
1298.860 
1298.915 
1298.970 
1299.025 
1299.080 
1299.135 
1299.190 
1299.245 
1299.300 
1299.355 
1299.410 
1299.465 
1299.520 
1299.575 
1299.630 
1299.685 
1299.740 
1299.795 
1299.850 
1299.905 
1299.960 
1300.015 
1300.071 
1300.126 
1300.181 
1300.236 
1300.291 
1300.346 
1300.401 
1300.456 
1300.511 
1300.566 
1300.621 
1300.676 
1300.731 
1300.786 
1300.841 
1300.896 
1300.951 
1301.006 
1301.061 
1301.116 
1301.171 
1301.226 
1301.281 
1301.336 
1301.391 
1301.446 
1301.501 
1301.556 
1301.611 
1301.666 
1301.721 
1301.776 
1301.831 
1301.886 
1301.941 
1301.996 
1302.051 
1302.106 
1302.161 
1302.216 
1302.271 
1302.326 
1302.381 
1302.436 
1302.491 
1302.546 
1302.601 
1302.656 
1302.711 
1302.767 
1302.822 
1302.877 
1302.932 
1302.987 
1303.042 
1303.097 
1303.152 
1303.207 
1303.262 
1303.317 
1303.372 
1303.427 
1303.482 
1303.537 
1303.592 
1303.647 
1303.702 
1303.757 
1303.812 
1303.867 
1303.922 
1303.977 
1304.032 
1304.087 
1304.142 
1304.197 
1304.252 
1304.307 
1304.362 
1304.417 
1304.472 
1304.527 
1304.582 
1304.637 
1304.692 
1304.747 
1304.802 
1304.857 
1304.912 
1304.967 
1305.022 
1305.077 
1305.132 
1305.187 
1305.242 
1305.297 
1305.352 
1305.407 
1305.462 
1305.517 
1305.572 
1305.627 
1305.682 
1305.737 
1305.792 
1305.847 
1305.902 
1305.957 
1306.012 
1306.067 
1306.122 
1306.177 
1306.232 
1306.287 
1306.342 
1306.397 
1306.452 
1306.507 
1306.562 
1306.617 
1306.672 
1306.727 
1306.782 
1306.837 
1306.892 
1306.947 
1307.002 
1307.057 
1307.112 
1307.167 
1307.222 
1307.277 
1307.332 
1307.387 
1307.442 
1307.497 
1307.552 
1307.607 
1307.662 
1307.717 
1307.772 
1307.827 
1307.882 
1307.937 
1307.992 
1308.047 
1308.102 
1308.157 
1308.212 
1308.267 
1308.322 
1308.376 
1308.431 
1308.486 
1308.541 
1308.596 
1308.651 
1308.706 
1308.761 
1308.816 
1308.871 
1308.926 
1308.981 
1309.036 
1309.091 
1309.146 
1309.201 
1309.256 
1309.311 
1309.366 
1309.421 
1309.476 
1309.531 
1309.586 
1309.641 
1309.696 
1309.751 
1309.806 
1309.861 
1309.916 
1309.971 
1310.026 
1310.081 
1310.136 
1310.191 
1310.246 
1310.301 
1310.356 
1310.411 
1310.466 
1310.521 
1310.576 
1310.631 
1310.686 
1310.741 
1310.796 
1310.851 
1310.906 
1310.961 
1311.016 
1311.070 
1311.125 
1311.180 
1311.235 
1311.290 
1311.345 
1311.400 
1311.455 
1311.510 
1311.565 
1311.620 
1311.675 
1311.730 
1311.785 
1311.840 
1311.895 
1311.950 
1312.005 
1312.060 
1312.115 
1312.170 
1312.225 
1312.280 
1312.335 
1312.390 
1312.445 
1312.500 
1312.555 
1312.610 
1312.665 
1312.720 
1312.775 
1312.829 
1312.884 
1312.939 
1312.994 
1313.049 
1313.104 
1313.159 
1313.214 
1313.269 
1313.324 
1313.379 
1313.434 
1313.489 
1313.544 
1313.599 
1313.654 
1313.709 
1313.764 
1313.819 
1313.874 
1313.929 
1313.984 
1314.039 
1314.094 
1314.149 
1314.204 
1314.258 
1314.313 
1314.368 
1314.423 
1314.478 
1314.533 
1314.588 
1314.643 
1314.698 
1314.753 
1314.808 
1314.863 
1314.918 
1314.973 
1315.028 
1315.083 
1315.138 
1315.193 
1315.248 
1315.303 
1315.358 
1315.413 
1315.467 
1315.522 
1315.577 
1315.632 
1315.687 
1315.742 
1315.797 
1315.852 
1315.907 
1315.962 
1316.017 
1316.072 
1316.127 
1316.182 
1316.237 
1316.292 
1316.347 
1316.402 
1316.457 
1316.511 
1316.566 
1316.621 
1316.676 
1316.731 
1316.786 
1316.841 
1316.896 
1316.951 
1317.006 
1317.061 
1317.116 
1317.171 
1317.226 
1317.281 
1317.336 
1317.391 
1317.446 
1317.500 
1317.555 
1317.610 
1317.665 
1317.720 
1317.775 
1317.830 
1317.885 
1317.940 
1317.995 
1318.050 
1318.105 
1318.160 
1318.215 
1318.270 
1318.325 
1318.380 
1318.434 
1318.489 
1318.544 
1318.599 
1318.654 
1318.709 
1318.764 
1318.819 
1318.874 
1318.929 
1318.984 
1319.039 
1319.094 
1319.149 
1319.204 
1319.258 
1319.313 
1319.368 
1319.423 
1319.478 
1319.533 
1319.588 
1319.643 
1319.698 
1319.753 
1319.808 
1319.863 
1319.918 
1319.973 
1320.027 
1320.082 
1320.137 
1320.192 
1320.247 
1320.302 
1320.357 
1320.412 
1320.467 
1320.522 
1320.577 
1320.632 
1320.687 
1320.742 
1320.796 
1320.851 
1320.906 
1320.961 
1321.016 
1321.071 
1321.126 
1321.181 
1321.236 
1321.291 
1321.346 
1321.401 
1321.456 
1321.510 
1321.565 
1321.620 
1321.675 
1321.730 
1321.785 
1321.840 
1321.895 
1321.950 
1322.005 
1322.060 
1322.115 
1322.170 
1322.224 
1322.279 
1322.334 
1322.389 
1322.444 
1322.499 
1322.554 
1322.609 
1322.664 
1322.719 
1322.774 
1322.829 
1322.883 
1322.938 
1322.993 
1323.048 
1323.103 
1323.158 
1323.213 
1323.268 
1323.323 
1323.378 
1323.433 
1323.487 
1323.542 
1323.597 
1323.652 
1323.707 
1323.762 
1323.817 
1323.872 
1323.927 
1323.982 
1324.037 
1324.091 
1324.146 
1324.201 
1324.256 
1324.311 
1324.366 
1324.421 
1324.476 
1324.531 
1324.586 
1324.641 
1324.695 
1324.750 
1324.805 
1324.860 
1324.915 
1324.970 
1325.025 
1325.080 
1325.135 
1325.190 
1325.245 
1325.299 
1325.354 
1325.409 
1325.464 
1325.519 
1325.574 
1325.629 
1325.684 
1325.739 
1325.794 
1325.848 
1325.903 
1325.958 
1326.013 
1326.068 
1326.123 
1326.178 
1326.233 
1326.288 
1326.343 
1326.397 
1326.452 
1326.507 
1326.562 
1326.617 
1326.672 
1326.727 
1326.782 
1326.837 
1326.891 
1326.946 
1327.001 
1327.056 
1327.111 
1327.166 
1327.221 
1327.276 
1327.331 
1327.386 
1327.440 
1327.495 
1327.550 
1327.605 
1327.660 
1327.715 
1327.770 
1327.825 
1327.880 
1327.934 
1327.989 
1328.044 
1328.099 
1328.154 
1328.209 
1328.264 
1328.319 
1328.374 
1328.428 
1328.483 
1328.538 
1328.593 
1328.648 
1328.703 
1328.758 
1328.813 
1328.868 
1328.922 
1328.977 
1329.032 
1329.087 
1329.142 
1329.197 
1329.252 
1329.307 
1329.362 
1329.416 
1329.471 
1329.526 
1329.581 
1329.636 
1329.691 
1329.746 
1329.801 
1329.855 
1329.910 
1329.965 
1330.020 
1330.075 
1330.130 
1330.185 
1330.240 
1330.294 
1330.349 
1330.404 
1330.459 
1330.514 
1330.569 
1330.624 
1330.679 
1330.733 
1330.788 
1330.843 
1330.898 
1330.953 
1331.008 
1331.063 
1331.118 
1331.172 
1331.227 
1331.282 
1331.337 
1331.392 
1331.447 
1331.502 
1331.557 
1331.611 
1331.666 
1331.721 
1331.776 
1331.831 
1331.886 
1331.941 
1331.996 
1332.050 
1332.105 
1332.160 
1332.215 
1332.270 
1332.325 
1332.380 
1332.435 
1332.489 
1332.544 
1332.599 
1332.654 
1332.709 
1332.764 
1332.819 
1332.873 
1332.928 
1332.983 
1333.038 
1333.093 
1333.148 
1333.203 
1333.258 
1333.312 
1333.367 
1333.422 
1333.477 
1333.532 
1333.587 
1333.642 
1333.696 
1333.751 
1333.806 
1333.861 
1333.916 
1333.971 
1334.026 
1334.080 
1334.135 
1334.190 
1334.245 
1334.300 
1334.355 
1334.410 
1334.464 
1334.519 
1334.574 
1334.629 
1334.684 
1334.739 
1334.794 
1334.848 
1334.903 
1334.958 
1335.013 
1335.068 
1335.123 
1335.178 
1335.232 
1335.287 
1335.342 
1335.397 
1335.452 
1335.507 
1335.562 
1335.616 
1335.671 
1335.726 
1335.781 
1335.836 
1335.891 
1335.946 
1336.000 
1336.055 
1336.110 
1336.165 
1336.220 
1336.275 
1336.329 
1336.384 
1336.439 
1336.494 
1336.549 
1336.604 
1336.659 
1336.713 
1336.768 
1336.823 
1336.878 
1336.933 
1336.988 
1337.042 
1337.097 
1337.152 
1337.207 
1337.262 
1337.317 
1337.372 
1337.426 
1337.481 
1337.536 
1337.591 
1337.646 
1337.701 
1337.755 
1337.810 
1337.865 
1337.920 
1337.975 
1338.030 
1338.084 
1338.139 
1338.194 
1338.249 
1338.304 
1338.359 
1338.414 
1338.468 
1338.523 
1338.578 
1338.633 
1338.688 
1338.743 
1338.797 
1338.852 
1338.907 
1338.962 
1339.017 
1339.072 
1339.126 
1339.181 
1339.236 
1339.291 
1339.346 
1339.401 
1339.455 
1339.510 
1339.565 
1339.620 
1339.675 
1339.730 
1339.784 
1339.839 
1339.894 
1339.949 
1340.004 
1340.059 
1340.113 
1340.168 
1340.223 
1340.278 
1340.333 
1340.388 
1340.442 
1340.497 
1340.552 
1340.607 
1340.662 
1340.717 
1340.771 
1340.826 
1340.881 
1340.936 
1340.991 
1341.045 
1341.100 
1341.155 
1341.210 
1341.265 
1341.320 
1341.374 
1341.429 
1341.484 
1341.539 
1341.594 
1341.649 
1341.703 
1341.758 
1341.813 
1341.868 
1341.923 
1341.977 
1342.032 
1342.087 
1342.142 
1342.197 
1342.252 
1342.306 
1342.361 
1342.416 
1342.471 
1342.526 
1342.580 
1342.635 
1342.690 
1342.745 
1342.800 
1342.855 
1342.909 
1342.964 
1343.019 
1343.074 
1343.129 
1343.183 
1343.238 
1343.293 
1343.348 
1343.403 
1343.458 
1343.512 
1343.567 
1343.622 
1343.677 
1343.732 
1343.786 
1343.841 
1343.896 
1343.951 
1344.006 
1344.060 
1344.115 
1344.170 
1344.225 
1344.280 
1344.335 
1344.389 
1344.444 
1344.499 
1344.554 
1344.609 
1344.663 
1344.718 
1344.773 
1344.828 
1344.883 
1344.937 
1344.992 
1345.047 
1345.102 
1345.157 
1345.211 
1345.266 
1345.321 
1345.376 
1345.431 
1345.485 
1345.540 
1345.595 
1345.650 
1345.705 
1345.759 
1345.814 
1345.869 
1345.924 
1345.979 
1346.033 
1346.088 
1346.143 
1346.198 
1346.253 
1346.307 
1346.362 
1346.417 
1346.472 
1346.527 
1346.581 
1346.636 
1346.691 
1346.746 
1346.801 
1346.855 
1346.910 
1346.965 
1347.020 
1347.075 
1347.129 
1347.184 
1347.239 
1347.294 
1347.349 
1347.403 
1347.458 
1347.513 
1347.568 
1347.623 
1347.677 
1347.732 
1347.787 
1347.842 
1347.897 
1347.951 
1348.006 
1348.061 
1348.116 
1348.170 
1348.225 
1348.280 
1348.335 
1348.390 
1348.444 
1348.499 
1348.554 
1348.609 
1348.664 
1348.718 
1348.773 
1348.828 
1348.883 
1348.938 
1348.992 
1349.047 
1349.102 
1349.157 
1349.211 
1349.266 
1349.321 
1349.376 
1349.431 
1349.485 
1349.540 
1349.595 
1349.650 
1349.705 
1349.759 
1349.814 
1349.869 
1349.924 
1349.978 
1350.033 
1350.088 
1350.143 
1350.198 
1350.252 
1350.307 
1350.362 
1350.417 
1350.471 
1350.526 
1350.581 
1350.636 
1350.691 
1350.745 
1350.800 
1350.855 
1350.910 
1350.964 
1351.019 
1351.074 
1351.129 
1351.184 
1351.238 
1351.293 
1351.348 
1351.403 
1351.457 
1351.512 
1351.567 
1351.622 
1351.677 
1351.731 
1351.786 
1351.841 
1351.896 
1351.950 
1352.005 
1352.060 
1352.115 
1352.169 
1352.224 
1352.279 
1352.334 
1352.389 
1352.443 
1352.498 
1352.553 
1352.608 
1352.662 
1352.717 
1352.772 
1352.827 
1352.881 
1352.936 
1352.991 
1353.046 
1353.101 
1353.155 
1353.210 
1353.265 
1353.320 
1353.374 
1353.429 
1353.484 
1353.539 
1353.593 
1353.648 
1353.703 
1353.758 
1353.812 
1353.867 
1353.922 
1353.977 
1354.032 
1354.086 
1354.141 
1354.196 
1354.251 
1354.305 
1354.360 
1354.415 
1354.470 
1354.524 
1354.579 
1354.634 
1354.689 
1354.743 
1354.798 
1354.853 
1354.908 
1354.962 
1355.017 
1355.072 
1355.127 
1355.181 
1355.236 
1355.291 
1355.346 
1355.400 
1355.455 
1355.510 
1355.565 
1355.619 
1355.674 
1355.729 
1355.784 
1355.839 
1355.893 
1355.948 
1356.003 
1356.058 
1356.112 
1356.167 
1356.222 
1356.277 
1356.331 
1356.386 
1356.441 
1356.496 
1356.550 
1356.605 
1356.660 
1356.715 
1356.769 
1356.824 
1356.879 
1356.934 
1356.988 
1357.043 
1357.098 
1357.152 
1357.207 
1357.262 
1357.317 
1357.371 
1357.426 
1357.481 
1357.536 
1357.590 
1357.645 
1357.700 
1357.755 
1357.809 
1357.864 
1357.919 
1357.974 
1358.028 
1358.083 
1358.138 
1358.193 
1358.247 
1358.302 
1358.357 
1358.412 
1358.466 
1358.521 
1358.576 
1358.631 
1358.685 
1358.740 
1358.795 
1358.849 
1358.904 
1358.959 
1359.014 
1359.068 
1359.123 
1359.178 
1359.233 
1359.287 
1359.342 
1359.397 
1359.452 
1359.506 
1359.561 
1359.616 
1359.671 
1359.725 
1359.780 
1359.835 
1359.889 
1359.944 
1359.999 
1360.054 
1360.108 
1360.163 
1360.218 
1360.273 
1360.327 
1360.382 
1360.437 
1360.492 
1360.546 
1360.601 
1360.656 
1360.710 
1360.765 
1360.820 
1360.875 
1360.929 
1360.984 
1361.039 
1361.094 
1361.148 
1361.203 
1361.258 
1361.312 
1361.367 
1361.422 
1361.477 
1361.531 
1361.586 
1361.641 
1361.695 
1361.750 
1361.805 
1361.860 
1361.914 
1361.969 
1362.024 
1362.079 
1362.133 
1362.188 
1362.243 
1362.297 
1362.352 
1362.407 
1362.462 
1362.516 
1362.571 
1362.626 
1362.680 
1362.735 
1362.790 
1362.845 
1362.899 
1362.954 
1363.009 
1363.063 
1363.118 
1363.173 
1363.228 
1363.282 
1363.337 
1363.392 
1363.447 
1363.501 
1363.556 
1363.611 
1363.665 
1363.720 
1363.775 
1363.830 
1363.884 
1363.939 
1363.994 
1364.048 
1364.103 
1364.158 
1364.212 
1364.267 
1364.322 
1364.377 
1364.431 
1364.486 
1364.541 
1364.595 
1364.650 
1364.705 
1364.760 
1364.814 
1364.869 
1364.924 
1364.978 
1365.033 
1365.088 
1365.143 
1365.197 
1365.252 
1365.307 
1365.361 
1365.416 
1365.471 
1365.525 
1365.580 
1365.635 
1365.690 
1365.744 
1365.799 
1365.854 
1365.908 
1365.963 
1366.018 
1366.073 
1366.127 
1366.182 
1366.237 
1366.291 
1366.346 
1366.401 
1366.455 
1366.510 
1366.565 
1366.620 
1366.674 
1366.729 
1366.784 
1366.838 
1366.893 
1366.948 
1367.002 
1367.057 
1367.112 
1367.167 
1367.221 
1367.276 
1367.331 
1367.385 
1367.440 
1367.495 
1367.549 
1367.604 
1367.659 
1367.713 
1367.768 
1367.823 
1367.878 
1367.932 
1367.987 
1368.042 
1368.096 
1368.151 
1368.206 
1368.260 
1368.315 
1368.370 
1368.424 
1368.479 
1368.534 
1368.589 
1368.643 
1368.698 
1368.753 
1368.807 
1368.862 
1368.917 
1368.971 
1369.026 
1369.081 
1369.135 
1369.190 
1369.245 
1369.299 
1369.354 
1369.409 
1369.464 
1369.518 
1369.573 
1369.628 
1369.682 
1369.737 
1369.792 
1369.846 
1369.901 
1369.956 
1370.010 
1370.065 
1370.120 
1370.174 
1370.229 
1370.284 
1370.338 
1370.393 
1370.448 
1370.503 
1370.557 
1370.612 
1370.667 
1370.721 
1370.776 
1370.831 
1370.885 
1370.940 
1370.995 
1371.049 
1371.104 
1371.159 
1371.213 
1371.268 
1371.323 
1371.377 
1371.432 
1371.487 
1371.541 
1371.596 
1371.651 
1371.705 
1371.760 
1371.815 
1371.869 
1371.924 
1371.979 
1372.033 
1372.088 
1372.143 
1372.197 
1372.252 
1372.307 
1372.361 
1372.416 
1372.471 
1372.525 
1372.580 
1372.635 
1372.690 
1372.744 
1372.799 
1372.854 
1372.908 
1372.963 
1373.018 
1373.072 
1373.127 
1373.182 
1373.236 
1373.291 
1373.346 
1373.400 
1373.455 
1373.510 
1373.564 
1373.619 
1373.674 
1373.728 
1373.783 
1373.837 
1373.892 
1373.947 
1374.001 
1374.056 
1374.111 
1374.165 
1374.220 
1374.275 
1374.329 
1374.384 
1374.439 
1374.493 
1374.548 
1374.603 
1374.657 
1374.712 
1374.767 
1374.821 
1374.876 
1374.931 
1374.985 
1375.040 
1375.095 
1375.149 
1375.204 
1375.259 
1375.313 
1375.368 
1375.423 
1375.477 
1375.532 
1375.587 
1375.641 
1375.696 
1375.751 
1375.805 
1375.860 
1375.915 
1375.969 
1376.024 
1376.078 
1376.133 
1376.188 
1376.242 
1376.297 
1376.352 
1376.406 
1376.461 
1376.516 
1376.570 
1376.625 
1376.680 
1376.734 
1376.789 
1376.844 
1376.898 
1376.953 
1377.008 
1377.062 
1377.117 
1377.171 
1377.226 
1377.281 
1377.335 
1377.390 
1377.445 
1377.499 
1377.554 
1377.609 
1377.663 
1377.718 
1377.773 
1377.827 
1377.882 
1377.937 
1377.991 
1378.046 
1378.100 
1378.155 
1378.210 
1378.264 
1378.319 
1378.374 
1378.428 
1378.483 
1378.538 
1378.592 
1378.647 
1378.702 
1378.756 
1378.811 
1378.865 
1378.920 
1378.975 
1379.029 
1379.084 
1379.139 
1379.193 
1379.248 
1379.303 
1379.357 
1379.412 
1379.466 
1379.521 
1379.576 
1379.630 
1379.685 
1379.740 
1379.794 
1379.849 
1379.904 
1379.958 
1380.013 
1380.067 
1380.122 
1380.177 
1380.231 
1380.286 
1380.341 
1380.395 
1380.450 
1380.504 
1380.559 
1380.614 
1380.668 
1380.723 
1380.778 
1380.832 
1380.887 
1380.942 
1380.996 
1381.051 
1381.105 
1381.160 
1381.215 
1381.269 
1381.324 
1381.379 
1381.433 
1381.488 
1381.542 
1381.597 
1381.652 
1381.706 
1381.761 
1381.816 
1381.870 
1381.925 
1381.979 
1382.034 
1382.089 
1382.143 
1382.198 
1382.253 
1382.307 
1382.362 
1382.416 
1382.471 
1382.526 
1382.580 
1382.635 
1382.689 
1382.744 
1382.799 
1382.853 
1382.908 
1382.963 
1383.017 
1383.072 
1383.126 
1383.181 
1383.236 
1383.290 
1383.345 
1383.400 
1383.454 
1383.509 
1383.563 
1383.618 
1383.673 
1383.727 
1383.782 
1383.836 
1383.891 
1383.946 
1384.000 
1384.055 
1384.110 
1384.164 
1384.219 
1384.273 
1384.328 
1384.383 
1384.437 
1384.492 
1384.546 
1384.601 
1384.656 
1384.710 
1384.765 
1384.819 
1384.874 
1384.929 
1384.983 
1385.038 
1385.093 
1385.147 
1385.202 
1385.256 
1385.311 
1385.366 
1385.420 
1385.475 
1385.529 
1385.584 
1385.639 
1385.693 
1385.748 
1385.802 
1385.857 
1385.912 
1385.966 
1386.021 
1386.075 
1386.130 
1386.185 
1386.239 
1386.294 
1386.348 
1386.403 
1386.458 
1386.512 
1386.567 
1386.621 
1386.676 
1386.731 
1386.785 
1386.840 
1386.894 
1386.949 
1387.004 
1387.058 
1387.113 
1387.167 
1387.222 
1387.277 
1387.331 
1387.386 
1387.440 
1387.495 
1387.550 
1387.604 
1387.659 
1387.713 
1387.768 
1387.823 
1387.877 
1387.932 
1387.986 
1388.041 
1388.096 
1388.150 
1388.205 
1388.259 
1388.314 
1388.369 
1388.423 
1388.478 
1388.532 
1388.587 
1388.641 
1388.696 
1388.751 
1388.805 
1388.860 
1388.914 
1388.969 
1389.024 
1389.078 
1389.133 
1389.187 
1389.242 
1389.297 
1389.351 
1389.406 
1389.460 
1389.515 
1389.569 
1389.624 
1389.679 
1389.733 
1389.788 
1389.842 
1389.897 
1389.952 
1390.006 
1390.061 
1390.115 
1390.170 
1390.224 
1390.279 
1390.334 
1390.388 
1390.443 
1390.497 
1390.552 
1390.607 
1390.661 
1390.716 
1390.770 
1390.825 
1390.879 
1390.934 
1390.989 
1391.043 
1391.098 
1391.152 
1391.207 
1391.262 
1391.316 
1391.371 
1391.425 
1391.480 
1391.534 
1391.589 
1391.644 
1391.698 
1391.753 
1391.807 
1391.862 
1391.916 
1391.971 
1392.026 
1392.080 
1392.135 
1392.189 
1392.244 
1392.298 
1392.353 
1392.408 
1392.462 
1392.517 
1392.571 
1392.626 
1392.680 
1392.735 
1392.790 
1392.844 
1392.899 
1392.953 
1393.008 
1393.062 
1393.117 
1393.172 
1393.226 
1393.281 
1393.335 
1393.390 
1393.444 
1393.499 
1393.554 
1393.608 
1393.663 
1393.717 
1393.772 
1393.826 
1393.881 
1393.935 
1393.990 
1394.045 
1394.099 
1394.154 
1394.208 
1394.263 
1394.317 
1394.372 
1394.427 
1394.481 
1394.536 
1394.590 
1394.645 
1394.699 
1394.754 
1394.808 
1394.863 
1394.918 
1394.972 
1395.027 
1395.081 
1395.136 
1395.190 
1395.245 
1395.300 
1395.354 
1395.409 
1395.463 
1395.518 
1395.572 
1395.627 
1395.681 
1395.736 
1395.791 
1395.845 
1395.900 
1395.954 
1396.009 
1396.063 
1396.118 
1396.172 
1396.227 
1396.282 
1396.336 
1396.391 
1396.445 
1396.500 
1396.554 
1396.609 
1396.663 
1396.718 
1396.772 
1396.827 
1396.882 
1396.936 
1396.991 
1397.045 
1397.100 
1397.154 
1397.209 
1397.263 
1397.318 
1397.373 
1397.427 
1397.482 
1397.536 
1397.591 
1397.645 
1397.700 
1397.754 
1397.809 
1397.863 
1397.918 
1397.973 
1398.027 
1398.082 
1398.136 
1398.191 
1398.245 
1398.300 
1398.354 
1398.409 
1398.463 
1398.518 
1398.572 
1398.627 
1398.682 
1398.736 
1398.791 
1398.845 
1398.900 
1398.954 
1399.009 
1399.063 
1399.118 
1399.172 
1399.227 
1399.281 
1399.336 
1399.391 
1399.445 
1399.500 
1399.554 
1399.609 
1399.663 
1399.718 
1399.772 
1399.827 
1399.881 
1399.936 
1399.990 
1400.045 
1400.100 
1400.154 
1400.209 
1400.263 
1400.318 
1400.372 
1400.427 
1400.481 
1400.536 
1400.590 
1400.645 
1400.699 
1400.754 
1400.808 
1400.863 
1400.918 
1400.972 
1401.027 
1401.081 
1401.136 
1401.190 
1401.245 
1401.299 
1401.354 
1401.408 
1401.463 
1401.517 
1401.572 
1401.626 
1401.681 
1401.735 
1401.790 
1401.844 
1401.899 
1401.954 
1402.008 
1402.063 
1402.117 
1402.172 
1402.226 
1402.281 
1402.335 
1402.390 
1402.444 
1402.499 
1402.553 
1402.608 
1402.662 
1402.717 
1402.771 
1402.826 
1402.880 
1402.935 
1402.989 
1403.044 
1403.098 
1403.153 
1403.208 
1403.262 
1403.317 
1403.371 
1403.426 
1403.480 
1403.535 
1403.589 
1403.644 
1403.698 
1403.753 
1403.807 
1403.862 
1403.916 
1403.971 
1404.025 
1404.080 
1404.134 
1404.189 
1404.243 
1404.298 
1404.352 
1404.407 
1404.461 
1404.516 
1404.570 
1404.625 
1404.679 
1404.734 
1404.788 
1404.843 
1404.897 
1404.952 
1405.006 
1405.061 
1405.116 
1405.170 
1405.225 
1405.279 
1405.334 
1405.388 
1405.443 
1405.497 
1405.552 
1405.606 
1405.661 
1405.715 
1405.770 
1405.824 
1405.879 
1405.933 
1405.988 
1406.042 
1406.097 
1406.151 
1406.206 
1406.260 
1406.315 
1406.369 
1406.424 
1406.478 
1406.533 
1406.587 
1406.642 
1406.696 
1406.751 
1406.805 
1406.860 
1406.914 
1406.969 
1407.023 
1407.078 
1407.132 
1407.187 
1407.241 
1407.296 
1407.350 
1407.405 
1407.459 
1407.514 
1407.568 
1407.623 
1407.677 
1407.732 
1407.786 
1407.841 
1407.895 
1407.950 
1408.004 
1408.059 
1408.113 
1408.168 
1408.222 
1408.277 
1408.331 
1408.386 
1408.440 
1408.495 
1408.549 
1408.604 
1408.658 
1408.713 
1408.767 
1408.822 
1408.876 
1408.930 
1408.985 
1409.039 
1409.094 
1409.148 
1409.203 
1409.257 
1409.312 
1409.366 
1409.421 
1409.475 
1409.530 
1409.584 
1409.639 
1409.693 
1409.748 
1409.802 
1409.857 
1409.911 
1409.966 
1410.020 
1410.075 
1410.129 
1410.184 
1410.238 
1410.293 
1410.347 
1410.402 
1410.456 
1410.511 
1410.565 
1410.620 
1410.674 
1410.729 
1410.783 
1410.837 
1410.892 
1410.946 
1411.001 
1411.055 
1411.110 
1411.164 
1411.219 
1411.273 
1411.328 
1411.382 
1411.437 
1411.491 
1411.546 
1411.600 
1411.655 
1411.709 
1411.764 
1411.818 
1411.873 
1411.927 
1411.982 
1412.036 
1412.090 
1412.145 
1412.199 
1412.254 
1412.308 
1412.363 
1412.417 
1412.472 
1412.526 
1412.581 
1412.635 
1412.690 
1412.744 
1412.799 
1412.853 
1412.908 
1412.962 
1413.016 
1413.071 
1413.125 
1413.180 
1413.234 
1413.289 
1413.343 
1413.398 
1413.452 
1413.507 
1413.561 
1413.616 
1413.670 
1413.725 
1413.779 
1413.834 
1413.888 
1413.942 
1413.997 
1414.051 
1414.106 
1414.160 
1414.215 
1414.269 
1414.324 
1414.378 
1414.433 
1414.487 
1414.542 
1414.596 
1414.650 
1414.705 
1414.759 
1414.814 
1414.868 
1414.923 
1414.977 
1415.032 
1415.086 
1415.141 
1415.195 
1415.250 
1415.304 
1415.358 
1415.413 
1415.467 
1415.522 
1415.576 
1415.631 
1415.685 
1415.740 
1415.794 
1415.849 
1415.903 
1415.957 
1416.012 
1416.066 
1416.121 
1416.175 
1416.230 
1416.284 
1416.339 
1416.393 
1416.448 
1416.502 
1416.556 
1416.611 
1416.665 
1416.720 
1416.774 
1416.829 
1416.883 
1416.938 
1416.992 
1417.047 
1417.101 
1417.155 
1417.210 
1417.264 
1417.319 
1417.373 
1417.428 
1417.482 
1417.537 
1417.591 
1417.645 
1417.700 
1417.754 
1417.809 
1417.863 
1417.918 
1417.972 
1418.027 
1418.081 
1418.135 
1418.190 
1418.244 
1418.299 
1418.353 
1418.408 
1418.462 
1418.517 
1418.571 
1418.625 
1418.680 
1418.734 
1418.789 
1418.843 
1418.898 
1418.952 
1419.007 
1419.061 
1419.115 
1419.170 
1419.224 
1419.279 
1419.333 
1419.388 
1419.442 
1419.496 
1419.551 
1419.605 
1419.660 
1419.714 
1419.769 
1419.823 
1419.878 
1419.932 
1419.986 
1420.041 
1420.095 
1420.150 
1420.204 
1420.259 
1420.313 
1420.367 
1420.422 
1420.476 
1420.531 
1420.585 
1420.640 
1420.694 
1420.748 
1420.803 
1420.857 
1420.912 
1420.966 
1421.021 
1421.075 
1421.130 
1421.184 
1421.238 
1421.293 
1421.347 
1421.402 
1421.456 
1421.511 
1421.565 
1421.619 
1421.674 
1421.728 
1421.783 
1421.837 
1421.891 
1421.946 
1422.000 
1422.055 
1422.109 
1422.164 
1422.218 
1422.272 
1422.327 
1422.381 
1422.436 
1422.490 
1422.545 
1422.599 
1422.653 
1422.708 
1422.762 
1422.817 
1422.871 
1422.926 
1422.980 
1423.034 
1423.089 
1423.143 
1423.198 
1423.252 
1423.306 
1423.361 
1423.415 
1423.470 
1423.524 
1423.579 
1423.633 
1423.687 
1423.742 
1423.796 
1423.851 
1423.905 
1423.959 
1424.014 
1424.068 
1424.123 
1424.177 
1424.232 
1424.286 
1424.340 
1424.395 
1424.449 
1424.504 
1424.558 
1424.612 
1424.667 
1424.721 
1424.776 
1424.830 
1424.885 
1424.939 
1424.993 
1425.048 
1425.102 
1425.157 
1425.211 
1425.265 
1425.320 
1425.374 
1425.429 
1425.483 
1425.537 
1425.592 
1425.646 
1425.701 
1425.755 
1425.809 
1425.864 
1425.918 
1425.973 
1426.027 
1426.081 
1426.136 
1426.190 
1426.245 
1426.299 
1426.354 
1426.408 
1426.462 
1426.517 
1426.571 
1426.626 
1426.680 
1426.734 
1426.789 
1426.843 
1426.898 
1426.952 
1427.006 
1427.061 
1427.115 
1427.170 
1427.224 
1427.278 
1427.333 
1427.387 
1427.442 
1427.496 
1427.550 
1427.605 
1427.659 
1427.714 
1427.768 
1427.822 
1427.877 
1427.931 
1427.986 
1428.040 
1428.094 
1428.149 
1428.203 
1428.257 
1428.312 
1428.366 
1428.421 
1428.475 
1428.529 
1428.584 
1428.638 
1428.693 
1428.747 
1428.801 
1428.856 
1428.910 
1428.965 
1429.019 
1429.073 
1429.128 
1429.182 
1429.237 
1429.291 
1429.345 
1429.400 
1429.454 
1429.508 
1429.563 
1429.617 
1429.672 
1429.726 
1429.780 
1429.835 
1429.889 
1429.944 
1429.998 
1430.052 
1430.107 
1430.161 
1430.216 
1430.270 
1430.324 
1430.379 
1430.433 
1430.487 
1430.542 
1430.596 
1430.651 
1430.705 
1430.759 
1430.814 
1430.868 
1430.922 
1430.977 
1431.031 
1431.086 
1431.140 
1431.194 
1431.249 
1431.303 
1431.358 
1431.412 
1431.466 
1431.521 
1431.575 
1431.629 
1431.684 
1431.738 
1431.793 
1431.847 
1431.901 
1431.956 
1432.010 
1432.064 
1432.119 
1432.173 
1432.228 
1432.282 
1432.336 
1432.391 
1432.445 
1432.499 
1432.554 
1432.608 
1432.663 
1432.717 
1432.771 
1432.826 
1432.880 
1432.934 
1432.989 
1433.043 
1433.098 
1433.152 
1433.206 
1433.261 
1433.315 
1433.369 
1433.424 
1433.478 
1433.532 
1433.587 
1433.641 
1433.696 
1433.750 
1433.804 
1433.859 
1433.913 
1433.967 
1434.022 
1434.076 
1434.130 
1434.185 
1434.239 
1434.294 
1434.348 
1434.402 
1434.457 
1434.511 
1434.565 
1434.620 
1434.674 
1434.728 
1434.783 
1434.837 
1434.892 
1434.946 
1435.000 
1435.055 
1435.109 
1435.163 
1435.218 
1435.272 
1435.326 
1435.381 
1435.435 
1435.490 
1435.544 
1435.598 
1435.653 
1435.707 
1435.761 
1435.816 
1435.870 
1435.924 
1435.979 
1436.033 
1436.087 
1436.142 
1436.196 
1436.251 
1436.305 
1436.359 
1436.414 
1436.468 
1436.522 
1436.577 
1436.631 
1436.685 
1436.740 
1436.794 
1436.848 
1436.903 
1436.957 
1437.011 
1437.066 
1437.120 
1437.175 
1437.229 
1437.283 
1437.338 
1437.392 
1437.446 
1437.501 
1437.555 
1437.609 
1437.664 
1437.718 
1437.772 
1437.827 
1437.881 
1437.935 
1437.990 
1438.044 
1438.098 
1438.153 
1438.207 
1438.261 
1438.316 
1438.370 
1438.424 
1438.479 
1438.533 
1438.588 
1438.642 
1438.696 
1438.751 
1438.805 
1438.859 
1438.914 
1438.968 
1439.022 
1439.077 
1439.131 
1439.185 
1439.240 
1439.294 
1439.348 
1439.403 
1439.457 
1439.511 
1439.566 
1439.620 
1439.674 
1439.729 
1439.783 
1439.837 
1439.892 
1439.946 
1440.000 
1440.055 
1440.109 
1440.163 
1440.218 
1440.272 
1440.326 
1440.381 
1440.435 
1440.489 
1440.544 
1440.598 
1440.652 
1440.707 
1440.761 
1440.815 
1440.870 
1440.924 
1440.978 
1441.033 
1441.087 
1441.141 
1441.196 
1441.250 
1441.304 
1441.359 
1441.413 
1441.467 
1441.522 
1441.576 
1441.630 
1441.685 
1441.739 
1441.793 
1441.848 
1441.902 
1441.956 
1442.011 
1442.065 
1442.119 
1442.174 
1442.228 
1442.282 
1442.337 
1442.391 
1442.445 
1442.500 
1442.554 
1442.608 
1442.662 
1442.717 
1442.771 
1442.825 
1442.880 
1442.934 
1442.988 
1443.043 
1443.097 
1443.151 
1443.206 
1443.260 
1443.314 
1443.369 
1443.423 
1443.477 
1443.532 
1443.586 
1443.640 
1443.695 
1443.749 
1443.803 
1443.858 
1443.912 
1443.966 
1444.020 
1444.075 
1444.129 
1444.183 
1444.238 
1444.292 
1444.346 
1444.401 
1444.455 
1444.509 
1444.564 
1444.618 
1444.672 
1444.727 
1444.781 
1444.835 
1444.889 
1444.944 
1444.998 
1445.052 
1445.107 
1445.161 
1445.215 
1445.270 
1445.324 
1445.378 
1445.433 
1445.487 
1445.541 
1445.596 
1445.650 
1445.704 
1445.758 
1445.813 
1445.867 
1445.921 
1445.976 
1446.030 
1446.084 
1446.139 
1446.193 
1446.247 
1446.302 
1446.356 
1446.410 
1446.464 
1446.519 
1446.573 
1446.627 
1446.682 
1446.736 
1446.790 
1446.845 
1446.899 
1446.953 
1447.007 
1447.062 
1447.116 
1447.170 
1447.225 
1447.279 
1447.333 
1447.388 
1447.442 
1447.496 
1447.550 
1447.605 
1447.659 
1447.713 
1447.768 
1447.822 
1447.876 
1447.931 
1447.985 
1448.039 
1448.093 
1448.148 
1448.202 
1448.256 
1448.311 
1448.365 
1448.419 
1448.473 
1448.528 
1448.582 
1448.636 
1448.691 
1448.745 
1448.799 
1448.854 
1448.908 
1448.962 
1449.016 
1449.071 
1449.125 
1449.179 
1449.234 
1449.288 
1449.342 
1449.396 
1449.451 
1449.505 
1449.559 
1449.614 
1449.668 
1449.722 
1449.776 
1449.831 
1449.885 
1449.939 
1449.994 
1450.048 
1450.102 
1450.156 
1450.211 
1450.265 
1450.319 
1450.374 
1450.428 
1450.482 
1450.536 
1450.591 
1450.645 
1450.699 
1450.754 
1450.808 
1450.862 
1450.916 
1450.971 
1451.025 
1451.079 
1451.134 
1451.188 
1451.242 
1451.296 
1451.351 
1451.405 
1451.459 
1451.514 
1451.568 
1451.622 
1451.676 
1451.731 
1451.785 
1451.839 
1451.893 
1451.948 
1452.002 
1452.056 
1452.111 
1452.165 
1452.219 
1452.273 
1452.328 
1452.382 
1452.436 
1452.490 
1452.545 
1452.599 
1452.653 
1452.708 
1452.762 
1452.816 
1452.870 
1452.925 
1452.979 
1453.033 
1453.087 
1453.142 
1453.196 
1453.250 
1453.305 
1453.359 
1453.413 
1453.467 
1453.522 
1453.576 
1453.630 
1453.684 
1453.739 
1453.793 
1453.847 
1453.902 
1453.956 
1454.010 
1454.064 
1454.119 
1454.173 
1454.227 
1454.281 
1454.336 
1454.390 
1454.444 
1454.498 
1454.553 
1454.607 
1454.661 
1454.715 
1454.770 
1454.824 
1454.878 
1454.933 
1454.987 
1455.041 
1455.095 
1455.150 
1455.204 
1455.258 
1455.312 
1455.367 
1455.421 
1455.475 
1455.529 
1455.584 
1455.638 
1455.692 
1455.746 
1455.801 
1455.855 
1455.909 
1455.963 
1456.018 
1456.072 
1456.126 
1456.180 
1456.235 
1456.289 
1456.343 
1456.398 
1456.452 
1456.506 
1456.560 
1456.615 
1456.669 
1456.723 
1456.777 
1456.832 
1456.886 
1456.940 
1456.994 
1457.049 
1457.103 
1457.157 
1457.211 
1457.266 
1457.320 
1457.374 
1457.428 
1457.483 
1457.537 
1457.591 
1457.645 
1457.700 
1457.754 
1457.808 
1457.862 
1457.917 
1457.971 
1458.025 
1458.079 
1458.134 
1458.188 
1458.242 
1458.296 
1458.350 
1458.405 
1458.459 
1458.513 
1458.567 
1458.622 
1458.676 
1458.730 
1458.784 
1458.839 
1458.893 
1458.947 
1459.001 
1459.056 
1459.110 
1459.164 
1459.218 
1459.273 
1459.327 
1459.381 
1459.435 
1459.490 
1459.544 
1459.598 
1459.652 
1459.707 
1459.761 
1459.815 
1459.869 
1459.923 
1459.978 
1460.032 
1460.086 
1460.140 
1460.195 
1460.249 
1460.303 
1460.357 
1460.412 
1460.466 
1460.520 
1460.574 
1460.629 
1460.683 
1460.737 
1460.791 
1460.845 
1460.900 
1460.954 
1461.008 
1461.062 
1461.117 
1461.171 
1461.225 
1461.279 
1461.334 
1461.388 
1461.442 
1461.496 
1461.550 
1461.605 
1461.659 
1461.713 
1461.767 
1461.822 
1461.876 
1461.930 
1461.984 
1462.039 
1462.093 
1462.147 
1462.201 
1462.255 
1462.310 
1462.364 
1462.418 
1462.472 
1462.527 
1462.581 
1462.635 
1462.689 
1462.743 
1462.798 
1462.852 
1462.906 
1462.960 
1463.015 
1463.069 
1463.123 
1463.177 
1463.231 
1463.286 
1463.340 
1463.394 
1463.448 
1463.503 
1463.557 
1463.611 
1463.665 
1463.719 
1463.774 
1463.828 
1463.882 
1463.936 
1463.990 
1464.045 
1464.099 
1464.153 
1464.207 
1464.262 
1464.316 
1464.370 
1464.424 
1464.478 
1464.533 
1464.587 
1464.641 
1464.695 
1464.749 
1464.804 
1464.858 
1464.912 
1464.966 
1465.021 
1465.075 
1465.129 
1465.183 
1465.237 
1465.292 
1465.346 
1465.400 
1465.454 
1465.508 
1465.563 
1465.617 
1465.671 
1465.725 
1465.779 
1465.834 
1465.888 
1465.942 
1465.996 
1466.051 
1466.105 
1466.159 
1466.213 
1466.267 
1466.322 
1466.376 
1466.430 
1466.484 
1466.538 
1466.593 
1466.647 
1466.701 
1466.755 
1466.809 
1466.864 
1466.918 
1466.972 
1467.026 
1467.080 
1467.135 
1467.189 
1467.243 
1467.297 
1467.351 
1467.406 
1467.460 
1467.514 
1467.568 
1467.622 
1467.677 
1467.731 
1467.785 
1467.839 
1467.893 
1467.948 
1468.002 
1468.056 
1468.110 
1468.164 
1468.219 
1468.273 
1468.327 
1468.381 
1468.435 
1468.490 
1468.544 
1468.598 
1468.652 
1468.706 
1468.761 
1468.815 
1468.869 
1468.923 
1468.977 
1469.031 
1469.086 
1469.140 
1469.194 
1469.248 
1469.302 
1469.357 
1469.411 
1469.465 
1469.519 
1469.573 
1469.628 
1469.682 
1469.736 
1469.790 
1469.844 
1469.898 
1469.953 
1470.007 
1470.061 
1470.115 
1470.169 
1470.224 
1470.278 
1470.332 
1470.386 
1470.440 
1470.495 
1470.549 
1470.603 
1470.657 
1470.711 
1470.765 
1470.820 
1470.874 
1470.928 
1470.982 
1471.036 
1471.091 
1471.145 
1471.199 
1471.253 
1471.307 
1471.361 
1471.416 
1471.470 
1471.524 
1471.578 
1471.632 
1471.687 
1471.741 
1471.795 
1471.849 
1471.903 
1471.957 
1472.012 
1472.066 
1472.120 
1472.174 
1472.228 
1472.282 
1472.337 
1472.391 
1472.445 
1472.499 
1472.553 
1472.608 
1472.662 
1472.716 
1472.770 
1472.824 
1472.878 
1472.933 
1472.987 
1473.041 
1473.095 
1473.149 
1473.203 
1473.258 
1473.312 
1473.366 
1473.420 
1473.474 
1473.528 
1473.583 
1473.637 
1473.691 
1473.745 
1473.799 
1473.853 
1473.908 
1473.962 
1474.016 
1474.070 
1474.124 
1474.178 
1474.233 
1474.287 
1474.341 
1474.395 
1474.449 
1474.503 
1474.558 
1474.612 
1474.666 
1474.720 
1474.774 
1474.828 
1474.883 
1474.937 
1474.991 
1475.045 
1475.099 
1475.153 
1475.208 
1475.262 
1475.316 
1475.370 
1475.424 
1475.478 
1475.533 
1475.587 
1475.641 
1475.695 
1475.749 
1475.803 
1475.857 
1475.912 
1475.966 
1476.020 
1476.074 
1476.128 
1476.182 
1476.237 
1476.291 
1476.345 
1476.399 
1476.453 
1476.507 
1476.561 
1476.616 
1476.670 
1476.724 
1476.778 
1476.832 
1476.886 
1476.941 
1476.995 
1477.049 
1477.103 
1477.157 
1477.211 
1477.265 
1477.320 
1477.374 
1477.428 
1477.482 
1477.536 
1477.590 
1477.645 
1477.699 
1477.753 
1477.807 
1477.861 
1477.915 
1477.969 
1478.024 
1478.078 
1478.132 
1478.186 
1478.240 
1478.294 
1478.348 
1478.403 
1478.457 
1478.511 
1478.565 
1478.619 
1478.673 
1478.727 
1478.782 
1478.836 
1478.890 
1478.944 
1478.998 
1479.052 
1479.106 
1479.161 
1479.215 
1479.269 
1479.323 
1479.377 
1479.431 
1479.485 
1479.540 
1479.594 
1479.648 
1479.702 
1479.756 
1479.810 
1479.864 
1479.919 
1479.973 
1480.027 
1480.081 
1480.135 
1480.189 
1480.243 
1480.297 
1480.352 
1480.406 
1480.460 
1480.514 
1480.568 
1480.622 
1480.676 
1480.731 
1480.785 
1480.839 
1480.893 
1480.947 
1481.001 
1481.055 
1481.109 
1481.164 
1481.218 
1481.272 
1481.326 
1481.380 
1481.434 
1481.488 
1481.543 
1481.597 
1481.651 
1481.705 
1481.759 
1481.813 
1481.867 
1481.921 
1481.976 
1482.030 
1482.084 
1482.138 
1482.192 
1482.246 
1482.300 
1482.354 
1482.409 
1482.463 
1482.517 
1482.571 
1482.625 
1482.679 
1482.733 
1482.787 
1482.842 
1482.896 
1482.950 
1483.004 
1483.058 
1483.112 
1483.166 
1483.220 
1483.275 
1483.329 
1483.383 
1483.437 
1483.491 
1483.545 
1483.599 
1483.653 
1483.707 
1483.762 
1483.816 
1483.870 
1483.924 
1483.978 
1484.032 
1484.086 
1484.140 
1484.195 
1484.249 
1484.303 
1484.357 
1484.411 
1484.465 
1484.519 
1484.573 
1484.627 
1484.682 
1484.736 
1484.790 
1484.844 
1484.898 
1484.952 
1485.006 
1485.060 
1485.114 
1485.169 
1485.223 
1485.277 
1485.331 
1485.385 
1485.439 
1485.493 
1485.547 
1485.601 
1485.656 
1485.710 
1485.764 
1485.818 
1485.872 
1485.926 
1485.980 
1486.034 
1486.088 
1486.143 
1486.197 
1486.251 
1486.305 
1486.359 
1486.413 
1486.467 
1486.521 
1486.575 
1486.629 
1486.684 
1486.738 
1486.792 
1486.846 
1486.900 
1486.954 
1487.008 
1487.062 
1487.116 
1487.170 
1487.225 
1487.279 
1487.333 
1487.387 
1487.441 
1487.495 
1487.549 
1487.603 
1487.657 
1487.711 
1487.766 
1487.820 
1487.874 
1487.928 
1487.982 
1488.036 
1488.090 
1488.144 
1488.198 
1488.252 
1488.307 
1488.361 
1488.415 
1488.469 
1488.523 
1488.577 
1488.631 
1488.685 
1488.739 
1488.793 
1488.847 
1488.902 
1488.956 
1489.010 
1489.064 
1489.118 
1489.172 
1489.226 
1489.280 
1489.334 
1489.388 
1489.442 
1489.497 
1489.551 
1489.605 
1489.659 
1489.713 
1489.767 
1489.821 
1489.875 
1489.929 
1489.983 
1490.037 
1490.092 
1490.146 
1490.200 
1490.254 
1490.308 
1490.362 
1490.416 
1490.470 
1490.524 
1490.578 
1490.632 
1490.686 
1490.741 
1490.795 
1490.849 
1490.903 
1490.957 
1491.011 
1491.065 
1491.119 
1491.173 
1491.227 
1491.281 
1491.335 
1491.390 
1491.444 
1491.498 
1491.552 
1491.606 
1491.660 
1491.714 
1491.768 
1491.822 
1491.876 
1491.930 
1491.984 
1492.038 
1492.093 
1492.147 
1492.201 
1492.255 
1492.309 
1492.363 
1492.417 
1492.471 
1492.525 
1492.579 
1492.633 
1492.687 
1492.741 
1492.796 
1492.850 
1492.904 
1492.958 
1493.012 
1493.066 
1493.120 
1493.174 
1493.228 
1493.282 
1493.336 
1493.390 
1493.444 
1493.498 
1493.553 
1493.607 
1493.661 
1493.715 
1493.769 
1493.823 
1493.877 
1493.931 
1493.985 
1494.039 
1494.093 
1494.147 
1494.201 
1494.255 
1494.309 
1494.364 
1494.418 
1494.472 
1494.526 
1494.580 
1494.634 
1494.688 
1494.742 
1494.796 
1494.850 
1494.904 
1494.958 
1495.012 
1495.066 
1495.120 
1495.174 
1495.229 
1495.283 
1495.337 
1495.391 
1495.445 
1495.499 
1495.553 
1495.607 
1495.661 
1495.715 
1495.769 
1495.823 
1495.877 
1495.931 
1495.985 
1496.039 
1496.093 
1496.148 
1496.202 
1496.256 
1496.310 
1496.364 
1496.418 
1496.472 
1496.526 
1496.580 
1496.634 
1496.688 
1496.742 
1496.796 
1496.850 
1496.904 
1496.958 
1497.012 
1497.066 
1497.121 
1497.175 
1497.229 
1497.283 
1497.337 
1497.391 
1497.445 
1497.499 
1497.553 
1497.607 
1497.661 
1497.715 
1497.769 
1497.823 
1497.877 
1497.931 
1497.985 
1498.039 
1498.093 
1498.147 
1498.201 
1498.256 
1498.310 
1498.364 
1498.418 
1498.472 
1498.526 
1498.580 
1498.634 
1498.688 
1498.742 
1498.796 
1498.850 
1498.904 
1498.958 
1499.012 
1499.066 
1499.120 
1499.174 
1499.228 
1499.282 
1499.336 
1499.390 
1499.444 
1499.499 
1499.553 
1499.607 
1499.661 
1499.715 
1499.769 
1499.823 
1499.877 
1499.931 
1499.985 
1500.039 
1500.093 
1500.147 
1500.201 
1500.255 
1500.309 
1500.363 
1500.417 
1500.471 
1500.525 
1500.579 
1500.633 
1500.687 
1500.741 
1500.795 
1500.849 
1500.903 
1500.957 
1501.012 
1501.066 
1501.120 
1501.174 
1501.228 
1501.282 
1501.336 
1501.390 
1501.444 
1501.498 
1501.552 
1501.606 
1501.660 
1501.714 
1501.768 
1501.822 
1501.876 
1501.930 
1501.984 
1502.038 
1502.092 
1502.146 
1502.200 
1502.254 
1502.308 
1502.362 
1502.416 
1502.470 
1502.524 
1502.578 
1502.632 
1502.686 
1502.740 
1502.794 
1502.848 
1502.902 
1502.956 
1503.011 
1503.065 
1503.119 
1503.173 
1503.227 
1503.281 
1503.335 
1503.389 
1503.443 
1503.497 
1503.551 
1503.605 
1503.659 
1503.713 
1503.767 
1503.821 
1503.875 
1503.929 
1503.983 
1504.037 
1504.091 
1504.145 
1504.199 
1504.253 
1504.307 
1504.361 
1504.415 
1504.469 
1504.523 
1504.577 
1504.631 
1504.685 
1504.739 
1504.793 
1504.847 
1504.901 
1504.955 
1505.009 
1505.063 
1505.117 
1505.171 
1505.225 
1505.279 
1505.333 
1505.387 
1505.441 
1505.495 
1505.549 
1505.603 
1505.657 
1505.711 
1505.765 
1505.819 
1505.873 
1505.927 
1505.981 
1506.035 
1506.089 
1506.143 
1506.197 
1506.251 
1506.305 
1506.359 
1506.413 
1506.467 
1506.521 
1506.575 
1506.629 
1506.683 
1506.737 
1506.791 
1506.845 
1506.899 
1506.953 
1507.007 
1507.061 
1507.115 
1507.169 
1507.223 
1507.277 
1507.331 
1507.385 
1507.439 
1507.493 
1507.547 
1507.601 
1507.655 
1507.709 
1507.763 
1507.817 
1507.871 
1507.925 
1507.979 
1508.033 
1508.087 
1508.141 
1508.195 
1508.249 
1508.303 
1508.357 
1508.411 
1508.465 
1508.519 
1508.573 
1508.627 
1508.681 
1508.735 
1508.789 
1508.843 
1508.897 
1508.951 
1509.005 
1509.059 
1509.113 
1509.167 
1509.221 
1509.275 
1509.329 
1509.383 
1509.437 
1509.491 
1509.545 
1509.599 
1509.653 
1509.707 
1509.761 
1509.815 
1509.869 
1509.923 
1509.977 
1510.031 
1510.085 
1510.139 
1510.193 
1510.247 
1510.301 
1510.355 
1510.409 
1510.463 
1510.517 
1510.571 
1510.625 
1510.679 
1510.733 
1510.787 
1510.841 
1510.895 
1510.949 
1511.003 
1511.057 
1511.111 
1511.165 
1511.219 
1511.273 
1511.327 
1511.381 
1511.435 
1511.489 
1511.543 
1511.597 
1511.651 
1511.705 
1511.759 
1511.813 
1511.866 
1511.920 
1511.974 
1512.028 
1512.082 
1512.136 
1512.190 
1512.244 
1512.298 
1512.352 
1512.406 
1512.460 
1512.514 
1512.568 
1512.622 
1512.676 
1512.730 
1512.784 
1512.838 
1512.892 
1512.946 
1513.000 
1513.054 
1513.108 
1513.162 
1513.216 
1513.270 
1513.324 
1513.378 
1513.432 
1513.486 
1513.540 
1513.594 
1513.648 
1513.702 
1513.756 
1513.810 
1513.863 
1513.917 
1513.971 
1514.025 
1514.079 
1514.133 
1514.187 
1514.241 
1514.295 
1514.349 
1514.403 
1514.457 
1514.511 
1514.565 
1514.619 
1514.673 
1514.727 
1514.781 
1514.835 
1514.889 
1514.943 
1514.997 
1515.051 
1515.105 
1515.159 
1515.213 
1515.267 
1515.321 
1515.374 
1515.428 
1515.482 
1515.536 
1515.590 
1515.644 
1515.698 
1515.752 
1515.806 
1515.860 
1515.914 
1515.968 
1516.022 
1516.076 
1516.130 
1516.184 
1516.238 
1516.292 
1516.346 
1516.400 
1516.454 
1516.508 
1516.562 
1516.615 
1516.669 
1516.723 
1516.777 
1516.831 
1516.885 
1516.939 
1516.993 
1517.047 
1517.101 
1517.155 
1517.209 
1517.263 
1517.317 
1517.371 
1517.425 
1517.479 
1517.533 
1517.587 
1517.641 
1517.695 
1517.748 
1517.802 
1517.856 
1517.910 
1517.964 
1518.018 
1518.072 
1518.126 
1518.180 
1518.234 
1518.288 
1518.342 
1518.396 
1518.450 
1518.504 
1518.558 
1518.612 
1518.666 
1518.719 
1518.773 
1518.827 
1518.881 
1518.935 
1518.989 
1519.043 
1519.097 
1519.151 
1519.205 
1519.259 
1519.313 
1519.367 
1519.421 
1519.475 
1519.529 
1519.583 
1519.636 
1519.690 
1519.744 
1519.798 
1519.852 
1519.906 
1519.960 
1520.014 
1520.068 
1520.122 
1520.176 
1520.230 
1520.284 
1520.338 
1520.392 
1520.446 
1520.499 
1520.553 
1520.607 
1520.661 
1520.715 
1520.769 
1520.823 
1520.877 
1520.931 
1520.985 
1521.039 
1521.093 
1521.147 
1521.201 
1521.255 
1521.308 
1521.362 
1521.416 
1521.470 
1521.524 
1521.578 
1521.632 
1521.686 
1521.740 
1521.794 
1521.848 
1521.902 
1521.956 
1522.010 
1522.063 
1522.117 
1522.171 
1522.225 
1522.279 
1522.333 
1522.387 
1522.441 
1522.495 
1522.549 
1522.603 
1522.657 
1522.711 
1522.764 
1522.818 
1522.872 
1522.926 
1522.980 
1523.034 
1523.088 
1523.142 
1523.196 
1523.250 
1523.304 
1523.358 
1523.412 
1523.465 
1523.519 
1523.573 
1523.627 
1523.681 
1523.735 
1523.789 
1523.843 
1523.897 
1523.951 
1524.005 
1524.059 
1524.112 
1524.166 
1524.220 
1524.274 
1524.328 
1524.382 
1524.436 
1524.490 
1524.544 
1524.598 
1524.652 
1524.706 
1524.759 
1524.813 
1524.867 
1524.921 
1524.975 
1525.029 
1525.083 
1525.137 
1525.191 
1525.245 
1525.299 
1525.352 
1525.406 
1525.460 
1525.514 
1525.568 
1525.622 
1525.676 
1525.730 
1525.784 
1525.838 
1525.892 
1525.945 
1525.999 
1526.053 
1526.107 
1526.161 
1526.215 
1526.269 
1526.323 
1526.377 
1526.431 
1526.485 
1526.538 
1526.592 
1526.646 
1526.700 
1526.754 
1526.808 
1526.862 
1526.916 
1526.970 
1527.024 
1527.077 
1527.131 
1527.185 
1527.239 
1527.293 
1527.347 
1527.401 
1527.455 
1527.509 
1527.563 
1527.616 
1527.670 
1527.724 
1527.778 
1527.832 
1527.886 
1527.940 
1527.994 
1528.048 
1528.102 
1528.155 
1528.209 
1528.263 
1528.317 
1528.371 
1528.425 
1528.479 
1528.533 
1528.587 
1528.640 
1528.694 
1528.748 
1528.802 
1528.856 
1528.910 
1528.964 
1529.018 
1529.072 
1529.126 
1529.179 
1529.233 
1529.287 
1529.341 
1529.395 
1529.449 
1529.503 
1529.557 
1529.611 
1529.664 
1529.718 
1529.772 
1529.826 
1529.880 
1529.934 
1529.988 
1530.042 
1530.096 
1530.149 
1530.203 
1530.257 
1530.311 
1530.365 
1530.419 
1530.473 
1530.527 
1530.580 
1530.634 
1530.688 
1530.742 
1530.796 
1530.850 
1530.904 
1530.958 
1531.012 
1531.065 
1531.119 
1531.173 
1531.227 
1531.281 
1531.335 
1531.389 
1531.443 
1531.496 
1531.550 
1531.604 
1531.658 
1531.712 
1531.766 
1531.820 
1531.874 
1531.928 
1531.981 
1532.035 
1532.089 
1532.143 
1532.197 
1532.251 
1532.305 
1532.359 
1532.412 
1532.466 
1532.520 
1532.574 
1532.628 
1532.682 
1532.736 
1532.790 
1532.843 
1532.897 
1532.951 
1533.005 
1533.059 
1533.113 
1533.167 
1533.220 
1533.274 
1533.328 
1533.382 
1533.436 
1533.490 
1533.544 
1533.598 
1533.651 
1533.705 
1533.759 
1533.813 
1533.867 
1533.921 
1533.975 
1534.029 
1534.082 
1534.136 
1534.190 
1534.244 
1534.298 
1534.352 
1534.406 
1534.459 
1534.513 
1534.567 
1534.621 
1534.675 
1534.729 
1534.783 
1534.836 
1534.890 
1534.944 
1534.998 
1535.052 
1535.106 
1535.160 
1535.214 
1535.267 
1535.321 
1535.375 
1535.429 
1535.483 
1535.537 
1535.591 
1535.644 
1535.698 
1535.752 
1535.806 
1535.860 
1535.914 
1535.968 
1536.021 
1536.075 
1536.129 
1536.183 
1536.237 
1536.291 
1536.345 
1536.398 
1536.452 
1536.506 
1536.560 
1536.614 
1536.668 
1536.722 
1536.775 
1536.829 
1536.883 
1536.937 
1536.991 
1537.045 
1537.098 
1537.152 
1537.206 
1537.260 
1537.314 
1537.368 
1537.422 
1537.475 
1537.529 
1537.583 
1537.637 
1537.691 
1537.745 
1537.799 
1537.852 
1537.906 
1537.960 
1538.014 
1538.068 
1538.122 
1538.175 
1538.229 
1538.283 
1538.337 
1538.391 
1538.445 
1538.499 
1538.552 
1538.606 
1538.660 
1538.714 
1538.768 
1538.822 
1538.875 
1538.929 
1538.983 
1539.037 
1539.091 
1539.145 
1539.198 
1539.252 
1539.306 
1539.360 
1539.414 
1539.468 
1539.522 
1539.575 
1539.629 
1539.683 
1539.737 
1539.791 
1539.845 
1539.898 
1539.952 
1540.006 
1540.060 
1540.114 
1540.168 
1540.221 
1540.275 
1540.329 
1540.383 
1540.437 
1540.491 
1540.544 
1540.598 
1540.652 
1540.706 
1540.760 
1540.814 
1540.867 
1540.921 
1540.975 
1541.029 
1541.083 
1541.137 
1541.190 
1541.244 
1541.298 
1541.352 
1541.406 
1541.460 
1541.513 
1541.567 
1541.621 
1541.675 
1541.729 
1541.783 
1541.836 
1541.890 
1541.944 
1541.998 
1542.052 
1542.105 
1542.159 
1542.213 
1542.267 
1542.321 
1542.375 
1542.428 
1542.482 
1542.536 
1542.590 
1542.644 
1542.698 
1542.751 
1542.805 
1542.859 
1542.913 
1542.967 
1543.020 
1543.074 
1543.128 
1543.182 
1543.236 
1543.290 
1543.343 
1543.397 
1543.451 
1543.505 
1543.559 
1543.613 
1543.666 
1543.720 
1543.774 
1543.828 
1543.882 
1543.935 
1543.989 
1544.043 
1544.097 
1544.151 
1544.205 
1544.258 
1544.312 
1544.366 
1544.420 
1544.474 
1544.527 
1544.581 
1544.635 
1544.689 
1544.743 
1544.796 
1544.850 
1544.904 
1544.958 
1545.012 
1545.066 
1545.119 
1545.173 
1545.227 
1545.281 
1545.335 
1545.388 
1545.442 
1545.496 
1545.550 
1545.604 
1545.657 
1545.711 
1545.765 
1545.819 
1545.873 
1545.926 
1545.980 
1546.034 
1546.088 
1546.142 
1546.196 
1546.249 
1546.303 
1546.357 
1546.411 
1546.465 
1546.518 
1546.572 
1546.626 
1546.680 
1546.734 
1546.787 
1546.841 
1546.895 
1546.949 
1547.003 
1547.056 
1547.110 
1547.164 
1547.218 
1547.272 
1547.325 
1547.379 
1547.433 
1547.487 
1547.541 
1547.594 
1547.648 
1547.702 
1547.756 
1547.810 
1547.863 
1547.917 
1547.971 
1548.025 
1548.079 
1548.132 
1548.186 
1548.240 
1548.294 
1548.348 
1548.401 
1548.455 
1548.509 
1548.563 
1548.616 
1548.670 
1548.724 
1548.778 
1548.832 
1548.885 
1548.939 
1548.993 
1549.047 
1549.101 
1549.154 
1549.208 
1549.262 
1549.316 
1549.370 
1549.423 
1549.477 
1549.531 
1549.585 
1549.639 
1549.692 
1549.746 
1549.800 
1549.854 
1549.907 
1549.961 
1550.015 
1550.069 
1550.123 
1550.176 
1550.230 
1550.284 
1550.338 
1550.392 
1550.445 
1550.499 
1550.553 
1550.607 
1550.660 
1550.714 
1550.768 
1550.822 
1550.876 
1550.929 
1550.983 
1551.037 
1551.091 
1551.144 
1551.198 
1551.252 
1551.306 
1551.360 
1551.413 
1551.467 
1551.521 
1551.575 
1551.629 
1551.682 
1551.736 
1551.790 
1551.844 
1551.897 
1551.951 
1552.005 
1552.059 
1552.112 
1552.166 
1552.220 
1552.274 
1552.328 
1552.381 
1552.435 
1552.489 
1552.543 
1552.596 
1552.650 
1552.704 
1552.758 
1552.812 
1552.865 
1552.919 
1552.973 
1553.027 
1553.080 
1553.134 
1553.188 
1553.242 
1553.296 
1553.349 
1553.403 
1553.457 
1553.511 
1553.564 
1553.618 
1553.672 
1553.726 
1553.779 
1553.833 
1553.887 
1553.941 
1553.994 
1554.048 
1554.102 
1554.156 
1554.210 
1554.263 
1554.317 
1554.371 
1554.425 
1554.478 
1554.532 
1554.586 
1554.640 
1554.693 
1554.747 
1554.801 
1554.855 
1554.908 
1554.962 
1555.016 
1555.070 
1555.124 
1555.177 
1555.231 
1555.285 
1555.339 
1555.392 
1555.446 
1555.500 
1555.554 
1555.607 
1555.661 
1555.715 
1555.769 
1555.822 
1555.876 
1555.930 
1555.984 
1556.037 
1556.091 
1556.145 
1556.199 
1556.252 
1556.306 
1556.360 
1556.414 
1556.467 
1556.521 
1556.575 
1556.629 
1556.682 
1556.736 
1556.790 
1556.844 
1556.897 
1556.951 
1557.005 
1557.059 
1557.112 
1557.166 
1557.220 
1557.274 
1557.327 
1557.381 
1557.435 
1557.489 
1557.542 
1557.596 
1557.650 
1557.704 
1557.757 
1557.811 
1557.865 
1557.919 
1557.972 
1558.026 
1558.080 
1558.134 
1558.187 
1558.241 
1558.295 
1558.349 
1558.402 
1558.456 
1558.510 
1558.564 
1558.617 
1558.671 
1558.725 
1558.779 
1558.832 
1558.886 
1558.940 
1558.994 
1559.047 
1559.101 
1559.155 
1559.209 
1559.262 
1559.316 
1559.370 
1559.424 
1559.477 
1559.531 
1559.585 
1559.638 
1559.692 
1559.746 
1559.800 
1559.853 
1559.907 
1559.961 
1560.015 
1560.068 
1560.122 
1560.176 
1560.230 
1560.283 
1560.337 
1560.391 
1560.445 
1560.498 
1560.552 
1560.606 
1560.659 
1560.713 
1560.767 
1560.821 
1560.874 
1560.928 
1560.982 
1561.036 
1561.089 
1561.143 
1561.197 
1561.251 
1561.304 
1561.358 
1561.412 
1561.465 
1561.519 
1561.573 
1561.627 
1561.680 
1561.734 
1561.788 
1561.842 
1561.895 
1561.949 
1562.003 
1562.056 
1562.110 
1562.164 
1562.218 
1562.271 
1562.325 
1562.379 
1562.433 
1562.486 
1562.540 
1562.594 
1562.647 
1562.701 
1562.755 
1562.809 
1562.862 
1562.916 
1562.970 
1563.023 
1563.077 
1563.131 
1563.185 
1563.238 
1563.292 
1563.346 
1563.400 
1563.453 
1563.507 
1563.561 
1563.614 
1563.668 
1563.722 
1563.776 
1563.829 
1563.883 
1563.937 
1563.990 
1564.044 
1564.098 
1564.152 
1564.205 
1564.259 
1564.313 
1564.366 
1564.420 
1564.474 
1564.528 
1564.581 
1564.635 
1564.689 
1564.742 
1564.796 
1564.850 
1564.904 
1564.957 
1565.011 
1565.065 
1565.118 
1565.172 
1565.226 
1565.280 
1565.333 
1565.387 
1565.441 
1565.494 
1565.548 
1565.602 
1565.655 
1565.709 
1565.763 
1565.817 
1565.870 
1565.924 
1565.978 
1566.031 
1566.085 
1566.139 
1566.193 
1566.246 
1566.300 
1566.354 
1566.407 
1566.461 
1566.515 
1566.568 
1566.622 
1566.676 
1566.730 
1566.783 
1566.837 
1566.891 
1566.944 
1566.998 
1567.052 
1567.105 
1567.159 
1567.213 
1567.267 
1567.320 
1567.374 
1567.428 
1567.481 
1567.535 
1567.589 
1567.642 
1567.696 
1567.750 
1567.804 
1567.857 
1567.911 
1567.965 
1568.018 
1568.072 
1568.126 
1568.179 
1568.233 
1568.287 
1568.341 
1568.394 
1568.448 
1568.502 
1568.555 
1568.609 
1568.663 
1568.716 
1568.770 
1568.824 
1568.877 
1568.931 
1568.985 
1569.039 
1569.092 
1569.146 
1569.200 
1569.253 
1569.307 
1569.361 
1569.414 
1569.468 
1569.522 
1569.575 
1569.629 
1569.683 
1569.737 
1569.790 
1569.844 
1569.898 
1569.951 
1570.005 
1570.059 
1570.112 
1570.166 
1570.220 
1570.273 
1570.327 
1570.381 
1570.434 
1570.488 
1570.542 
1570.595 
1570.649 
1570.703 
1570.757 
1570.810 
1570.864 
1570.918 
1570.971 
1571.025 
1571.079 
1571.132 
1571.186 
1571.240 
1571.293 
1571.347 
1571.401 
1571.454 
1571.508 
1571.562 
1571.615 
1571.669 
1571.723 
1571.776 
1571.830 
1571.884 
1571.937 
1571.991 
1572.045 
1572.098 
1572.152 
1572.206 
1572.260 
1572.313 
1572.367 
1572.421 
1572.474 
1572.528 
1572.582 
1572.635 
1572.689 
1572.743 
1572.796 
1572.850 
1572.904 
1572.957 
1573.011 
1573.065 
1573.118 
1573.172 
1573.226 
1573.279 
1573.333 
1573.387 
1573.440 
1573.494 
1573.548 
1573.601 
1573.655 
1573.709 
1573.762 
1573.816 
1573.870 
1573.923 
1573.977 
1574.031 
1574.084 
1574.138 
1574.192 
1574.245 
1574.299 
1574.353 
1574.406 
1574.460 
1574.514 
1574.567 
1574.621 
1574.675 
1574.728 
1574.782 
1574.836 
1574.889 
1574.943 
1574.997 
1575.050 
1575.104 
1575.158 
1575.211 
1575.265 
1575.319 
1575.372 
1575.426 
1575.480 
1575.533 
1575.587 
1575.640 
1575.694 
1575.748 
1575.801 
1575.855 
1575.909 
1575.962 
1576.016 
1576.070 
1576.123 
1576.177 
1576.231 
1576.284 
1576.338 
1576.392 
1576.445 
1576.499 
1576.553 
1576.606 
1576.660 
1576.714 
1576.767 
1576.821 
1576.875 
1576.928 
1576.982 
1577.036 
1577.089 
1577.143 
1577.196 
1577.250 
1577.304 
1577.357 
1577.411 
1577.465 
1577.518 
1577.572 
1577.626 
1577.679 
1577.733 
1577.787 
1577.840 
1577.894 
1577.948 
1578.001 
1578.055 
1578.108 
1578.162 
1578.216 
1578.269 
1578.323 
1578.377 
1578.430 
1578.484 
1578.538 
1578.591 
1578.645 
1578.699 
1578.752 
1578.806 
1578.859 
1578.913 
1578.967 
1579.020 
1579.074 
1579.128 
1579.181 
1579.235 
1579.289 
1579.342 
1579.396 
1579.450 
1579.503 
1579.557 
1579.610 
1579.664 
1579.718 
1579.771 
1579.825 
1579.879 
1579.932 
1579.986 
1580.040 
1580.093 
1580.147 
1580.200 
1580.254 
1580.308 
1580.361 
1580.415 
1580.469 
1580.522 
1580.576 
1580.629 
1580.683 
1580.737 
1580.790 
1580.844 
1580.898 
1580.951 
1581.005 
1581.059 
1581.112 
1581.166 
1581.219 
1581.273 
1581.327 
1581.380 
1581.434 
1581.488 
1581.541 
1581.595 
1581.648 
1581.702 
1581.756 
1581.809 
1581.863 
1581.917 
1581.970 
1582.024 
1582.077 
1582.131 
1582.185 
1582.238 
1582.292 
1582.346 
1582.399 
1582.453 
1582.506 
1582.560 
1582.614 
1582.667 
1582.721 
1582.775 
1582.828 
1582.882 
1582.935 
1582.989 
1583.043 
1583.096 
1583.150 
1583.204 
1583.257 
1583.311 
1583.364 
1583.418 
1583.472 
1583.525 
1583.579 
1583.632 
1583.686 
1583.740 
1583.793 
1583.847 
1583.901 
1583.954 
1584.008 
1584.061 
1584.115 
1584.169 
1584.222 
1584.276 
1584.330 
1584.383 
1584.437 
1584.490 
1584.544 
1584.598 
1584.651 
1584.705 
1584.758 
1584.812 
1584.866 
1584.919 
1584.973 
1585.026 
1585.080 
1585.134 
1585.187 
1585.241 
1585.295 
1585.348 
1585.402 
1585.455 
1585.509 
1585.563 
1585.616 
1585.670 
1585.723 
1585.777 
1585.831 
1585.884 
1585.938 
1585.991 
1586.045 
1586.099 
1586.152 
1586.206 
1586.259 
1586.313 
1586.367 
1586.420 
1586.474 
1586.527 
1586.581 
1586.635 
1586.688 
1586.742 
1586.795 
1586.849 
1586.903 
1586.956 
1587.010 
1587.063 
1587.117 
1587.171 
1587.224 
1587.278 
1587.331 
1587.385 
1587.439 
1587.492 
1587.546 
1587.599 
1587.653 
1587.707 
1587.760 
1587.814 
1587.867 
1587.921 
1587.975 
1588.028 
1588.082 
1588.135 
1588.189 
1588.243 
1588.296 
1588.350 
1588.403 
1588.457 
1588.511 
1588.564 
1588.618 
1588.671 
1588.725 
1588.779 
1588.832 
1588.886 
1588.939 
1588.993 
1589.046 
1589.100 
1589.154 
1589.207 
1589.261 
1589.314 
1589.368 
1589.422 
1589.475 
1589.529 
1589.582 
1589.636 
1589.690 
1589.743 
1589.797 
1589.850 
1589.904 
1589.957 
1590.011 
1590.065 
1590.118 
1590.172 
1590.225 
1590.279 
1590.333 
1590.386 
1590.440 
1590.493 
1590.547 
1590.600 
1590.654 
1590.708 
1590.761 
1590.815 
1590.868 
1590.922 
1590.976 
1591.029 
1591.083 
1591.136 
1591.190 
1591.243 
1591.297 
1591.351 
1591.404 
1591.458 
1591.511 
1591.565 
1591.619 
1591.672 
1591.726 
1591.779 
1591.833 
1591.886 
1591.940 
1591.994 
1592.047 
1592.101 
1592.154 
1592.208 
1592.261 
1592.315 
1592.369 
1592.422 
1592.476 
1592.529 
1592.583 
1592.636 
1592.690 
1592.744 
1592.797 
1592.851 
1592.904 
1592.958 
1593.011 
1593.065 
1593.119 
1593.172 
1593.226 
1593.279 
1593.333 
1593.386 
1593.440 
1593.494 
1593.547 
1593.601 
1593.654 
1593.708 
1593.761 
1593.815 
1593.869 
1593.922 
1593.976 
1594.029 
1594.083 
1594.136 
1594.190 
1594.243 
1594.297 
1594.351 
1594.404 
1594.458 
1594.511 
1594.565 
1594.618 
1594.672 
1594.726 
1594.779 
1594.833 
1594.886 
1594.940 
1594.993 
1595.047 
1595.100 
1595.154 
1595.208 
1595.261 
1595.315 
1595.368 
1595.422 
1595.475 
1595.529 
1595.582 
1595.636 
1595.690 
1595.743 
1595.797 
1595.850 
1595.904 
1595.957 
1596.011 
1596.064 
1596.118 
1596.172 
1596.225 
1596.279 
1596.332 
1596.386 
1596.439 
1596.493 
1596.546 
1596.600 
1596.654 
1596.707 
1596.761 
1596.814 
1596.868 
1596.921 
1596.975 
1597.028 
1597.082 
1597.136 
1597.189 
1597.243 
1597.296 
1597.350 
1597.403 
1597.457 
1597.510 
1597.564 
1597.617 
1597.671 
1597.725 
1597.778 
1597.832 
1597.885 
1597.939 
1597.992 
1598.046 
1598.099 
1598.153 
1598.206 
1598.260 
1598.314 
1598.367 
1598.421 
1598.474 
1598.528 
1598.581 
1598.635 
1598.688 
1598.742 
1598.795 
1598.849 
1598.903 
1598.956 
1599.010 
1599.063 
1599.117 
1599.170 
1599.224 
1599.277 
1599.331 
1599.384 
1599.438 
1599.491 
1599.545 
1599.599 
1599.652 
1599.706 
1599.759 
1599.813 
1599.866 
1599.920 
1599.973 
1600.027 
1600.080 
1600.134 
1600.187 
1600.241 
1600.294 
1600.348 
1600.402 
1600.455 
1600.509 
1600.562 
1600.616 
1600.669 
1600.723 
1600.776 
1600.830 
1600.883 
1600.937 
1600.990 
1601.044 
1601.097 
1601.151 
1601.205 
1601.258 
1601.312 
1601.365 
1601.419 
1601.472 
1601.526 
1601.579 
1601.633 
1601.686 
1601.740 
1601.793 
1601.847 
1601.900 
1601.954 
1602.007 
1602.061 
1602.114 
1602.168 
1602.222 
1602.275 
1602.329 
1602.382 
1602.436 
1602.489 
1602.543 
1602.596 
1602.650 
1602.703 
1602.757 
1602.810 
1602.864 
1602.917 
1602.971 
1603.024 
1603.078 
1603.131 
1603.185 
1603.238 
1603.292 
1603.345 
1603.399 
1603.452 
1603.506 
1603.560 
1603.613 
1603.667 
1603.720 
1603.774 
1603.827 
1603.881 
1603.934 
1603.988 
1604.041 
1604.095 
1604.148 
1604.202 
1604.255 
1604.309 
1604.362 
1604.416 
1604.469 
1604.523 
1604.576 
1604.630 
1604.683 
1604.737 
1604.790 
1604.844 
1604.897 
1604.951 
1605.004 
1605.058 
1605.111 
1605.165 
1605.218 
1605.272 
1605.325 
1605.379 
1605.432 
1605.486 
1605.539 
1605.593 
1605.646 
1605.700 
1605.754 
1605.807 
1605.861 
1605.914 
1605.968 
1606.021 
1606.075 
1606.128 
1606.182 
1606.235 
1606.289 
1606.342 
1606.396 
1606.449 
1606.503 
1606.556 
1606.610 
1606.663 
1606.717 
1606.770 
1606.824 
1606.877 
1606.931 
1606.984 
1607.038 
1607.091 
1607.145 
1607.198 
1607.252 
1607.305 
1607.359 
1607.412 
1607.466 
1607.519 
1607.573 
1607.626 
1607.680 
1607.733 
1607.787 
1607.840 
1607.894 
1607.947 
1608.001 
1608.054 
1608.108 
1608.161 
1608.214 
1608.268 
1608.321 
1608.375 
1608.428 
1608.482 
1608.535 
1608.589 
1608.642 
1608.696 
1608.749 
1608.803 
1608.856 
1608.910 
1608.963 
1609.017 
1609.070 
1609.124 
1609.177 
1609.231 
1609.284 
1609.338 
1609.391 
1609.445 
1609.498 
1609.552 
1609.605 
1609.659 
1609.712 
1609.766 
1609.819 
1609.873 
1609.926 
1609.980 
1610.033 
1610.087 
1610.140 
1610.194 
1610.247 
1610.301 
1610.354 
1610.408 
1610.461 
1610.514 
1610.568 
1610.621 
1610.675 
1610.728 
1610.782 
1610.835 
1610.889 
1610.942 
1610.996 
1611.049 
1611.103 
1611.156 
1611.210 
1611.263 
1611.317 
1611.370 
1611.424 
1611.477 
1611.531 
1611.584 
1611.638 
1611.691 
1611.744 
1611.798 
1611.851 
1611.905 
1611.958 
1612.012 
1612.065 
1612.119 
1612.172 
1612.226 
1612.279 
1612.333 
1612.386 
1612.440 
1612.493 
1612.547 
1612.600 
1612.654 
1612.707 
1612.760 
1612.814 
1612.867 
1612.921 
1612.974 
1613.028 
1613.081 
1613.135 
1613.188 
1613.242 
1613.295 
1613.349 
1613.402 
1613.456 
1613.509 
1613.563 
1613.616 
1613.669 
1613.723 
1613.776 
1613.830 
1613.883 
1613.937 
1613.990 
1614.044 
1614.097 
1614.151 
1614.204 
1614.258 
1614.311 
1614.364 
1614.418 
1614.471 
1614.525 
1614.578 
1614.632 
1614.685 
1614.739 
1614.792 
1614.846 
1614.899 
1614.953 
1615.006 
1615.059 
1615.113 
1615.166 
1615.220 
1615.273 
1615.327 
1615.380 
1615.434 
1615.487 
1615.541 
1615.594 
1615.647 
1615.701 
1615.754 
1615.808 
1615.861 
1615.915 
1615.968 
1616.022 
1616.075 
1616.129 
1616.182 
1616.235 
1616.289 
1616.342 
1616.396 
1616.449 
1616.503 
1616.556 
1616.610 
1616.663 
1616.717 
1616.770 
1616.823 
1616.877 
1616.930 
1616.984 
1617.037 
1617.091 
1617.144 
1617.198 
1617.251 
1617.305 
1617.358 
1617.411 
1617.465 
1617.518 
1617.572 
1617.625 
1617.679 
1617.732 
1617.786 
1617.839 
1617.892 
1617.946 
1617.999 
1618.053 
1618.106 
1618.160 
1618.213 
1618.267 
1618.320 
1618.373 
1618.427 
1618.480 
1618.534 
1618.587 
1618.641 
1618.694 
1618.747 
1618.801 
1618.854 
1618.908 
1618.961 
1619.015 
1619.068 
1619.122 
1619.175 
1619.228 
1619.282 
1619.335 
1619.389 
1619.442 
1619.496 
1619.549 
1619.603 
1619.656 
1619.709 
1619.763 
1619.816 
1619.870 
1619.923 
1619.977 
1620.030 
1620.083 
1620.137 
1620.190 
1620.244 
1620.297 
1620.351 
1620.404 
1620.457 
1620.511 
1620.564 
1620.618 
1620.671 
1620.725 
1620.778 
1620.831 
1620.885 
1620.938 
1620.992 
1621.045 
1621.099 
1621.152 
1621.205 
1621.259 
1621.312 
1621.366 
1621.419 
1621.473 
1621.526 
1621.579 
1621.633 
1621.686 
1621.740 
1621.793 
1621.847 
1621.900 
1621.953 
1622.007 
1622.060 
1622.114 
1622.167 
1622.221 
1622.274 
1622.327 
1622.381 
1622.434 
1622.488 
1622.541 
1622.595 
1622.648 
1622.701 
1622.755 
1622.808 
1622.862 
1622.915 
1622.968 
1623.022 
1623.075 
1623.129 
1623.182 
1623.236 
1623.289 
1623.342 
1623.396 
1623.449 
1623.503 
1623.556 
1623.609 
1623.663 
1623.716 
1623.770 
1623.823 
1623.877 
1623.930 
1623.983 
1624.037 
1624.090 
1624.144 
1624.197 
1624.250 
1624.304 
1624.357 
1624.411 
1624.464 
1624.517 
1624.571 
1624.624 
1624.678 
1624.731 
1624.785 
1624.838 
1624.891 
1624.945 
1624.998 
1625.052 
1625.105 
1625.158 
1625.212 
1625.265 
1625.319 
1625.372 
1625.425 
1625.479 
1625.532 
1625.586 
1625.639 
1625.692 
1625.746 
1625.799 
1625.853 
1625.906 
1625.959 
1626.013 
1626.066 
1626.120 
1626.173 
1626.227 
1626.280 
1626.333 
1626.387 
1626.440 
1626.494 
1626.547 
1626.600 
1626.654 
1626.707 
1626.761 
1626.814 
1626.867 
1626.921 
1626.974 
1627.028 
1627.081 
1627.134 
1627.188 
1627.241 
1627.295 
1627.348 
1627.401 
1627.455 
1627.508 
1627.561 
1627.615 
1627.668 
1627.722 
1627.775 
1627.828 
1627.882 
1627.935 
1627.989 
1628.042 
1628.095 
1628.149 
1628.202 
1628.256 
1628.309 
1628.362 
1628.416 
1628.469 
1628.523 
1628.576 
1628.629 
1628.683 
1628.736 
1628.790 
1628.843 
1628.896 
1628.950 
1629.003 
1629.056 
1629.110 
1629.163 
1629.217 
1629.270 
1629.323 
1629.377 
1629.430 
1629.484 
1629.537 
1629.590 
1629.644 
1629.697 
1629.750 
1629.804 
1629.857 
1629.911 
1629.964 
1630.017 
1630.071 
1630.124 
1630.178 
1630.231 
1630.284 
1630.338 
1630.391 
1630.444 
1630.498 
1630.551 
1630.605 
1630.658 
1630.711 
1630.765 
1630.818 
1630.872 
1630.925 
1630.978 
1631.032 
1631.085 
1631.138 
1631.192 
1631.245 
1631.299 
1631.352 
1631.405 
1631.459 
1631.512 
1631.565 
1631.619 
1631.672 
1631.726 
1631.779 
1631.832 
1631.886 
1631.939 
1631.992 
1632.046 
1632.099 
1632.153 
1632.206 
1632.259 
1632.313 
1632.366 
1632.419 
1632.473 
1632.526 
1632.580 
1632.633 
1632.686 
1632.740 
1632.793 
1632.846 
1632.900 
1632.953 
1633.006 
1633.060 
1633.113 
1633.167 
1633.220 
1633.273 
1633.327 
1633.380 
1633.433 
1633.487 
1633.540 
1633.593 
1633.647 
1633.700 
1633.754 
1633.807 
1633.860 
1633.914 
1633.967 
1634.020 
1634.074 
1634.127 
1634.180 
1634.234 
1634.287 
1634.341 
1634.394 
1634.447 
1634.501 
1634.554 
1634.607 
1634.661 
1634.714 
1634.767 
1634.821 
1634.874 
1634.928 
1634.981 
1635.034 
1635.088 
1635.141 
1635.194 
1635.248 
1635.301 
1635.354 
1635.408 
1635.461 
1635.514 
1635.568 
1635.621 
1635.675 
1635.728 
1635.781 
1635.835 
1635.888 
1635.941 
1635.995 
1636.048 
1636.101 
1636.155 
1636.208 
1636.261 
1636.315 
1636.368 
1636.421 
1636.475 
1636.528 
1636.582 
1636.635 
1636.688 
1636.742 
1636.795 
1636.848 
1636.902 
1636.955 
1637.008 
1637.062 
1637.115 
1637.168 
1637.222 
1637.275 
1637.328 
1637.382 
1637.435 
1637.488 
1637.542 
1637.595 
1637.648 
1637.702 
1637.755 
1637.809 
1637.862 
1637.915 
1637.969 
1638.022 
1638.075 
1638.129 
1638.182 
1638.235 
1638.289 
1638.342 
1638.395 
1638.449 
1638.502 
1638.555 
1638.609 
1638.662 
1638.715 
1638.769 
1638.822 
1638.875 
1638.929 
1638.982 
1639.035 
1639.089 
1639.142 
1639.195 
1639.249 
1639.302 
1639.355 
1639.409 
1639.462 
1639.515 
1639.569 
1639.622 
1639.675 
1639.729 
1639.782 
1639.835 
1639.889 
1639.942 
1639.995 
1640.049 
1640.102 
1640.155 
1640.209 
1640.262 
1640.315 
1640.369 
1640.422 
1640.475 
1640.529 
1640.582 
1640.635 
1640.689 
1640.742 
1640.795 
1640.849 
1640.902 
1640.955 
1641.009 
1641.062 
1641.115 
1641.169 
1641.222 
1641.275 
1641.329 
1641.382 
1641.435 
1641.489 
1641.542 
1641.595 
1641.649 
1641.702 
1641.755 
1641.809 
1641.862 
1641.915 
1641.969 
1642.022 
1642.075 
1642.128 
1642.182 
1642.235 
1642.288 
1642.342 
1642.395 
1642.448 
1642.502 
1642.555 
1642.608 
1642.662 
1642.715 
1642.768 
1642.822 
1642.875 
1642.928 
1642.982 
1643.035 
1643.088 
1643.142 
1643.195 
1643.248 
1643.302 
1643.355 
1643.408 
1643.461 
1643.515 
1643.568 
1643.621 
1643.675 
1643.728 
1643.781 
1643.835 
1643.888 
1643.941 
1643.995 
1644.048 
1644.101 
1644.155 
1644.208 
1644.261 
1644.314 
1644.368 
1644.421 
1644.474 
1644.528 
1644.581 
1644.634 
1644.688 
1644.741 
1644.794 
1644.848 
1644.901 
1644.954 
1645.007 
1645.061 
1645.114 
1645.167 
1645.221 
1645.274 
1645.327 
1645.381 
1645.434 
1645.487 
1645.541 
1645.594 
1645.647 
1645.700 
1645.754 
1645.807 
1645.860 
1645.914 
1645.967 
1646.020 
1646.074 
1646.127 
1646.180 
1646.233 
1646.287 
1646.340 
1646.393 
1646.447 
1646.500 
1646.553 
1646.607 
1646.660 
1646.713 
1646.766 
1646.820 
1646.873 
1646.926 
1646.980 
1647.033 
1647.086 
1647.140 
1647.193 
1647.246 
1647.299 
1647.353 
1647.406 
1647.459 
1647.513 
1647.566 
1647.619 
1647.673 
1647.726 
1647.779 
1647.832 
1647.886 
1647.939 
1647.992 
1648.046 
1648.099 
1648.152 
1648.205 
1648.259 
1648.312 
1648.365 
1648.419 
1648.472 
1648.525 
1648.578 
1648.632 
1648.685 
1648.738 
1648.792 
1648.845 
1648.898 
1648.952 
1649.005 
1649.058 
1649.111 
1649.165 
1649.218 
1649.271 
1649.325 
1649.378 
1649.431 
1649.484 
1649.538 
1649.591 
1649.644 
1649.698 
1649.751 
1649.804 
1649.857 
1649.911 
1649.964 
1650.017 
1650.070 
1650.124 
1650.177 
1650.230 
1650.284 
1650.337 
1650.390 
1650.443 
1650.497 
1650.550 
1650.603 
1650.657 
1650.710 
1650.763 
1650.816 
1650.870 
1650.923 
1650.976 
1651.030 
1651.083 
1651.136 
1651.189 
1651.243 
1651.296 
1651.349 
1651.402 
1651.456 
1651.509 
1651.562 
1651.616 
1651.669 
1651.722 
1651.775 
1651.829 
1651.882 
1651.935 
1651.988 
1652.042 
1652.095 
1652.148 
1652.202 
1652.255 
1652.308 
1652.361 
1652.415 
1652.468 
1652.521 
1652.574 
1652.628 
1652.681 
1652.734 
1652.788 
1652.841 
1652.894 
1652.947 
1653.001 
1653.054 
1653.107 
1653.160 
1653.214 
1653.267 
1653.320 
1653.373 
1653.427 
1653.480 
1653.533 
1653.587 
1653.640 
1653.693 
1653.746 
1653.800 
1653.853 
1653.906 
1653.959 
1654.013 
1654.066 
1654.119 
1654.172 
1654.226 
1654.279 
1654.332 
1654.385 
1654.439 
1654.492 
1654.545 
1654.598 
1654.652 
1654.705 
1654.758 
1654.812 
1654.865 
1654.918 
1654.971 
1655.025 
1655.078 
1655.131 
1655.184 
1655.238 
1655.291 
1655.344 
1655.397 
1655.451 
1655.504 
1655.557 
1655.610 
1655.664 
1655.717 
1655.770 
1655.823 
1655.877 
1655.930 
1655.983 
1656.036 
1656.090 
1656.143 
1656.196 
1656.249 
1656.303 
1656.356 
1656.409 
1656.462 
1656.516 
1656.569 
1656.622 
1656.675 
1656.729 
1656.782 
1656.835 
1656.888 
1656.942 
1656.995 
1657.048 
1657.101 
1657.155 
1657.208 
1657.261 
1657.314 
1657.368 
1657.421 
1657.474 
1657.527 
1657.581 
1657.634 
1657.687 
1657.740 
1657.794 
1657.847 
1657.900 
1657.953 
1658.007 
1658.060 
1658.113 
1658.166 
1658.219 
1658.273 
1658.326 
1658.379 
1658.432 
1658.486 
1658.539 
1658.592 
1658.645 
1658.699 
1658.752 
1658.805 
1658.858 
1658.912 
1658.965 
1659.018 
1659.071 
1659.125 
1659.178 
1659.231 
1659.284 
1659.337 
1659.391 
1659.444 
1659.497 
1659.550 
1659.604 
1659.657 
1659.710 
1659.763 
1659.817 
1659.870 
1659.923 
1659.976 
1660.029 
1660.083 
1660.136 
1660.189 
1660.242 
1660.296 
1660.349 
1660.402 
1660.455 
1660.509 
1660.562 
1660.615 
1660.668 
1660.721 
1660.775 
1660.828 
1660.881 
1660.934 
1660.988 
1661.041 
1661.094 
1661.147 
1661.201 
1661.254 
1661.307 
1661.360 
1661.413 
1661.467 
1661.520 
1661.573 
1661.626 
1661.680 
1661.733 
1661.786 
1661.839 
1661.892 
1661.946 
1661.999 
1662.052 
1662.105 
1662.159 
1662.212 
1662.265 
1662.318 
1662.371 
1662.425 
1662.478 
1662.531 
1662.584 
1662.638 
1662.691 
1662.744 
1662.797 
1662.850 
1662.904 
1662.957 
1663.010 
1663.063 
1663.116 
1663.170 
1663.223 
1663.276 
1663.329 
1663.383 
1663.436 
1663.489 
1663.542 
1663.595 
1663.649 
1663.702 
1663.755 
1663.808 
1663.861 
1663.915 
1663.968 
1664.021 
1664.074 
1664.128 
1664.181 
1664.234 
1664.287 
1664.340 
1664.394 
1664.447 
1664.500 
1664.553 
1664.606 
1664.660 
1664.713 
1664.766 
1664.819 
1664.872 
1664.926 
1664.979 
1665.032 
1665.085 
1665.138 
1665.192 
1665.245 
1665.298 
1665.351 
1665.404 
1665.458 
1665.511 
1665.564 
1665.617 
1665.671 
1665.724 
1665.777 
1665.830 
1665.883 
1665.937 
1665.990 
1666.043 
1666.096 
1666.149 
1666.203 
1666.256 
1666.309 
1666.362 
1666.415 
1666.469 
1666.522 
1666.575 
1666.628 
1666.681 
1666.735 
1666.788 
1666.841 
1666.894 
1666.947 
1667.000 
1667.054 
1667.107 
1667.160 
1667.213 
1667.266 
1667.320 
1667.373 
1667.426 
1667.479 
1667.532 
1667.586 
1667.639 
1667.692 
1667.745 
1667.798 
1667.852 
1667.905 
1667.958 
1668.011 
1668.064 
1668.118 
1668.171 
1668.224 
1668.277 
1668.330 
1668.383 
1668.437 
1668.490 
1668.543 
1668.596 
1668.649 
1668.703 
1668.756 
1668.809 
1668.862 
1668.915 
1668.969 
1669.022 
1669.075 
1669.128 
1669.181 
1669.234 
1669.288 
1669.341 
1669.394 
1669.447 
1669.500 
1669.554 
1669.607 
1669.660 
1669.713 
1669.766 
1669.820 
1669.873 
1669.926 
1669.979 
1670.032 
1670.085 
1670.139 
1670.192 
1670.245 
1670.298 
1670.351 
1670.404 
1670.458 
1670.511 
1670.564 
1670.617 
1670.670 
1670.724 
1670.777 
1670.830 
1670.883 
1670.936 
1670.989 
1671.043 
1671.096 
1671.149 
1671.202 
1671.255 
1671.308 
1671.362 
1671.415 
1671.468 
1671.521 
1671.574 
1671.628 
1671.681 
1671.734 
1671.787 
1671.840 
1671.893 
1671.947 
1672.000 
1672.053 
1672.106 
1672.159 
1672.212 
1672.266 
1672.319 
1672.372 
1672.425 
1672.478 
1672.531 
1672.585 
1672.638 
1672.691 
1672.744 
1672.797 
1672.850 
1672.904 
1672.957 
1673.010 
1673.063 
1673.116 
1673.169 
1673.223 
1673.276 
1673.329 
1673.382 
1673.435 
1673.488 
1673.542 
1673.595 
1673.648 
1673.701 
1673.754 
1673.807 
1673.861 
1673.914 
1673.967 
1674.020 
1674.073 
1674.126 
1674.179 
1674.233 
1674.286 
1674.339 
1674.392 
1674.445 
1674.498 
1674.552 
1674.605 
1674.658 
1674.711 
1674.764 
1674.817 
1674.871 
1674.924 
1674.977 
1675.030 
1675.083 
1675.136 
1675.189 
1675.243 
1675.296 
1675.349 
1675.402 
1675.455 
1675.508 
1675.562 
1675.615 
1675.668 
1675.721 
1675.774 
1675.827 
1675.880 
1675.934 
1675.987 
1676.040 
1676.093 
1676.146 
1676.199 
1676.253 
1676.306 
1676.359 
1676.412 
1676.465 
1676.518 
1676.571 
1676.625 
1676.678 
1676.731 
1676.784 
1676.837 
1676.890 
1676.943 
1676.997 
1677.050 
1677.103 
1677.156 
1677.209 
1677.262 
1677.315 
1677.369 
1677.422 
1677.475 
1677.528 
1677.581 
1677.634 
1677.687 
1677.741 
1677.794 
1677.847 
1677.900 
1677.953 
1678.006 
1678.059 
1678.113 
1678.166 
1678.219 
1678.272 
1678.325 
1678.378 
1678.431 
1678.485 
1678.538 
1678.591 
1678.644 
1678.697 
1678.750 
1678.803 
1678.856 
1678.910 
1678.963 
1679.016 
1679.069 
1679.122 
1679.175 
1679.228 
1679.282 
1679.335 
1679.388 
1679.441 
1679.494 
1679.547 
1679.600 
1679.654 
1679.707 
1679.760 
1679.813 
1679.866 
1679.919 
1679.972 
1680.025 
1680.079 
1680.132 
1680.185 
1680.238 
1680.291 
1680.344 
1680.397 
1680.450 
1680.504 
1680.557 
1680.610 
1680.663 
1680.716 
1680.769 
1680.822 
1680.875 
1680.929 
1680.982 
1681.035 
1681.088 
1681.141 
1681.194 
1681.247 
1681.300 
1681.354 
1681.407 
1681.460 
1681.513 
1681.566 
1681.619 
1681.672 
1681.725 
1681.779 
1681.832 
1681.885 
1681.938 
1681.991 
1682.044 
1682.097 
1682.150 
1682.204 
1682.257 
1682.310 
1682.363 
1682.416 
1682.469 
1682.522 
1682.575 
1682.628 
1682.682 
1682.735 
1682.788 
1682.841 
1682.894 
1682.947 
1683.000 
1683.053 
1683.106 
1683.160 
1683.213 
1683.266 
1683.319 
1683.372 
1683.425 
1683.478 
1683.531 
1683.585 
1683.638 
1683.691 
1683.744 
1683.797 
1683.850 
1683.903 
1683.956 
1684.009 
1684.063 
1684.116 
1684.169 
1684.222 
1684.275 
1684.328 
1684.381 
1684.434 
1684.487 
1684.540 
1684.594 
1684.647 
1684.700 
1684.753 
1684.806 
1684.859 
1684.912 
1684.965 
1685.018 
1685.072 
1685.125 
1685.178 
1685.231 
1685.284 
1685.337 
1685.390 
1685.443 
1685.496 
1685.549 
1685.603 
1685.656 
1685.709 
1685.762 
1685.815 
1685.868 
1685.921 
1685.974 
1686.027 
1686.080 
1686.134 
1686.187 
1686.240 
1686.293 
1686.346 
1686.399 
1686.452 
1686.505 
1686.558 
1686.611 
1686.665 
1686.718 
1686.771 
1686.824 
1686.877 
1686.930 
1686.983 
1687.036 
1687.089 
1687.142 
1687.195 
1687.249 
1687.302 
1687.355 
1687.408 
1687.461 
1687.514 
1687.567 
1687.620 
1687.673 
1687.726 
1687.780 
1687.833 
1687.886 
1687.939 
1687.992 
1688.045 
1688.098 
1688.151 
1688.204 
1688.257 
1688.310 
1688.363 
1688.417 
1688.470 
1688.523 
1688.576 
1688.629 
1688.682 
1688.735 
1688.788 
1688.841 
1688.894 
1688.947 
1689.001 
1689.054 
1689.107 
1689.160 
1689.213 
1689.266 
1689.319 
1689.372 
1689.425 
1689.478 
1689.531 
1689.584 
1689.638 
1689.691 
1689.744 
1689.797 
1689.850 
1689.903 
1689.956 
1690.009 
1690.062 
1690.115 
1690.168 
1690.221 
1690.274 
1690.328 
1690.381 
1690.434 
1690.487 
1690.540 
1690.593 
1690.646 
1690.699 
1690.752 
1690.805 
1690.858 
1690.911 
1690.964 
1691.018 
1691.071 
1691.124 
1691.177 
1691.230 
1691.283 
1691.336 
1691.389 
1691.442 
1691.495 
1691.548 
1691.601 
1691.654 
1691.707 
1691.761 
1691.814 
1691.867 
1691.920 
1691.973 
1692.026 
1692.079 
1692.132 
1692.185 
1692.238 
1692.291 
1692.344 
1692.397 
1692.450 
1692.503 
1692.557 
1692.610 
1692.663 
1692.716 
1692.769 
1692.822 
1692.875 
1692.928 
1692.981 
1693.034 
1693.087 
1693.140 
1693.193 
1693.246 
1693.299 
1693.353 
1693.406 
1693.459 
1693.512 
1693.565 
1693.618 
1693.671 
1693.724 
1693.777 
1693.830 
1693.883 
1693.936 
1693.989 
1694.042 
1694.095 
1694.148 
1694.201 
1694.255 
1694.308 
1694.361 
1694.414 
1694.467 
1694.520 
1694.573 
1694.626 
1694.679 
1694.732 
1694.785 
1694.838 
1694.891 
1694.944 
1694.997 
1695.050 
1695.103 
1695.156 
1695.210 
1695.263 
1695.316 
1695.369 
1695.422 
1695.475 
1695.528 
1695.581 
1695.634 
1695.687 
1695.740 
1695.793 
1695.846 
1695.899 
1695.952 
1696.005 
1696.058 
1696.111 
1696.164 
1696.217 
1696.271 
1696.324 
1696.377 
1696.430 
1696.483 
1696.536 
1696.589 
1696.642 
1696.695 
1696.748 
1696.801 
1696.854 
1696.907 
1696.960 
1697.013 
1697.066 
1697.119 
1697.172 
1697.225 
1697.278 
1697.331 
1697.384 
1697.438 
1697.491 
1697.544 
1697.597 
1697.650 
1697.703 
1697.756 
1697.809 
1697.862 
1697.915 
1697.968 
1698.021 
1698.074 
1698.127 
1698.180 
1698.233 
1698.286 
1698.339 
1698.392 
1698.445 
1698.498 
1698.551 
1698.604 
1698.657 
1698.710 
1698.763 
1698.816 
1698.870 
1698.923 
1698.976 
1699.029 
1699.082 
1699.135 
1699.188 
1699.241 
1699.294 
1699.347 
1699.400 
1699.453 
1699.506 
1699.559 
1699.612 
1699.665 
1699.718 
1699.771 
1699.824 
1699.877 
1699.930 
1699.983 
1700.036 
1700.089 
1700.142 
1700.195 
1700.248 
1700.301 
1700.354 
1700.407 
1700.460 
1700.513 
1700.566 
1700.619 
1700.673 
1700.726 
1700.779 
1700.832 
1700.885 
1700.938 
1700.991 
1701.044 
1701.097 
1701.150 
1701.203 
1701.256 
1701.309 
1701.362 
1701.415 
1701.468 
1701.521 
1701.574 
1701.627 
1701.680 
1701.733 
1701.786 
1701.839 
1701.892 
1701.945 
1701.998 
1702.051 
1702.104 
1702.157 
1702.210 
1702.263 
1702.316 
1702.369 
1702.422 
1702.475 
1702.528 
1702.581 
1702.634 
1702.687 
1702.740 
1702.793 
1702.846 
1702.899 
1702.952 
1703.005 
1703.058 
1703.111 
1703.164 
1703.217 
1703.270 
1703.323 
1703.376 
1703.429 
1703.482 
1703.535 
1703.588 
1703.641 
1703.695 
1703.748 
1703.801 
1703.854 
1703.907 
1703.960 
1704.013 
1704.066 
1704.119 
1704.172 
1704.225 
1704.278 
1704.331 
1704.384 
1704.437 
1704.490 
1704.543 
1704.596 
1704.649 
1704.702 
1704.755 
1704.808 
1704.861 
1704.914 
1704.967 
1705.020 
1705.073 
1705.126 
1705.179 
1705.232 
1705.285 
1705.338 
1705.391 
1705.444 
1705.497 
1705.550 
1705.603 
1705.656 
1705.709 
1705.762 
1705.815 
1705.868 
1705.921 
1705.974 
1706.027 
1706.080 
1706.133 
1706.186 
1706.239 
1706.292 
1706.345 
1706.398 
1706.451 
1706.504 
1706.557 
1706.610 
1706.663 
1706.716 
1706.769 
1706.822 
1706.875 
1706.928 
1706.981 
1707.034 
1707.087 
1707.140 
1707.193 
1707.246 
1707.299 
1707.352 
1707.405 
1707.457 
1707.510 
1707.563 
1707.616 
1707.669 
1707.722 
1707.775 
1707.828 
1707.881 
1707.934 
1707.987 
1708.040 
1708.093 
1708.146 
1708.199 
1708.252 
1708.305 
1708.358 
1708.411 
1708.464 
1708.517 
1708.570 
1708.623 
1708.676 
1708.729 
1708.782 
1708.835 
1708.888 
1708.941 
1708.994 
1709.047 
1709.100 
1709.153 
1709.206 
1709.259 
1709.312 
1709.365 
1709.418 
1709.471 
1709.524 
1709.577 
1709.630 
1709.683 
1709.736 
1709.789 
1709.842 
1709.895 
1709.948 
1710.001 
1710.054 
1710.107 
1710.160 
1710.213 
1710.266 
1710.319 
1710.372 
1710.425 
1710.478 
1710.530 
1710.583 
1710.636 
1710.689 
1710.742 
1710.795 
1710.848 
1710.901 
1710.954 
1711.007 
1711.060 
1711.113 
1711.166 
1711.219 
1711.272 
1711.325 
1711.378 
1711.431 
1711.484 
1711.537 
1711.590 
1711.643 
1711.696 
1711.749 
1711.802 
1711.855 
1711.908 
1711.961 
1712.014 
1712.067 
1712.120 
1712.173 
1712.226 
1712.278 
1712.331 
1712.384 
1712.437 
1712.490 
1712.543 
1712.596 
1712.649 
1712.702 
1712.755 
1712.808 
1712.861 
1712.914 
1712.967 
1713.020 
1713.073 
1713.126 
1713.179 
1713.232 
1713.285 
1713.338 
1713.391 
1713.444 
1713.497 
1713.550 
1713.603 
1713.656 
1713.708 
1713.761 
1713.814 
1713.867 
1713.920 
1713.973 
1714.026 
1714.079 
1714.132 
1714.185 
1714.238 
1714.291 
1714.344 
1714.397 
1714.450 
1714.503 
1714.556 
1714.609 
1714.662 
1714.715 
1714.768 
1714.821 
1714.873 
1714.926 
1714.979 
1715.032 
1715.085 
1715.138 
1715.191 
1715.244 
1715.297 
1715.350 
1715.403 
1715.456 
1715.509 
1715.562 
1715.615 
1715.668 
1715.721 
1715.774 
1715.827 
1715.880 
1715.932 
1715.985 
1716.038 
1716.091 
1716.144 
1716.197 
1716.250 
1716.303 
1716.356 
1716.409 
1716.462 
1716.515 
1716.568 
1716.621 
1716.674 
1716.727 
1716.780 
1716.833 
1716.885 
1716.938 
1716.991 
1717.044 
1717.097 
1717.150 
1717.203 
1717.256 
1717.309 
1717.362 
1717.415 
1717.468 
1717.521 
1717.574 
1717.627 
1717.680 
1717.733 
1717.785 
1717.838 
1717.891 
1717.944 
1717.997 
1718.050 
1718.103 
1718.156 
1718.209 
1718.262 
1718.315 
1718.368 
1718.421 
1718.474 
1718.527 
1718.580 
1718.632 
1718.685 
1718.738 
1718.791 
1718.844 
1718.897 
1718.950 
1719.003 
1719.056 
1719.109 
1719.162 
1719.215 
1719.268 
1719.321 
1719.373 
1719.426 
1719.479 
1719.532 
1719.585 
1719.638 
1719.691 
1719.744 
1719.797 
1719.850 
1719.903 
1719.956 
1720.009 
1720.062 
1720.114 
1720.167 
1720.220 
1720.273 
1720.326 
1720.379 
1720.432 
1720.485 
1720.538 
1720.591 
1720.644 
1720.697 
1720.750 
1720.802 
1720.855 
1720.908 
1720.961 
1721.014 
1721.067 
1721.120 
1721.173 
1721.226 
1721.279 
1721.332 
1721.385 
1721.438 
1721.490 
1721.543 
1721.596 
1721.649 
1721.702 
1721.755 
1721.808 
1721.861 
1721.914 
1721.967 
1722.020 
1722.073 
1722.125 
1722.178 
1722.231 
1722.284 
1722.337 
1722.390 
1722.443 
1722.496 
1722.549 
1722.602 
1722.655 
1722.708 
1722.760 
1722.813 
1722.866 
1722.919 
1722.972 
1723.025 
1723.078 
1723.131 
1723.184 
1723.237 
1723.290 
1723.342 
1723.395 
1723.448 
1723.501 
1723.554 
1723.607 
1723.660 
1723.713 
1723.766 
1723.819 
1723.872 
1723.924 
1723.977 
1724.030 
1724.083 
1724.136 
1724.189 
1724.242 
1724.295 
1724.348 
1724.401 
1724.453 
1724.506 
1724.559 
1724.612 
1724.665 
1724.718 
1724.771 
1724.824 
1724.877 
1724.930 
1724.982 
1725.035 
1725.088 
1725.141 
1725.194 
1725.247 
1725.300 
1725.353 
1725.406 
1725.459 
1725.511 
1725.564 
1725.617 
1725.670 
1725.723 
1725.776 
1725.829 
1725.882 
1725.935 
1725.988 
1726.040 
1726.093 
1726.146 
1726.199 
1726.252 
1726.305 
1726.358 
1726.411 
1726.464 
1726.517 
1726.569 
1726.622 
1726.675 
1726.728 
1726.781 
1726.834 
1726.887 
1726.940 
1726.993 
1727.045 
1727.098 
1727.151 
1727.204 
1727.257 
1727.310 
1727.363 
1727.416 
1727.469 
1727.521 
1727.574 
1727.627 
1727.680 
1727.733 
1727.786 
1727.839 
1727.892 
1727.945 
1727.997 
1728.050 
1728.103 
1728.156 
1728.209 
1728.262 
1728.315 
1728.368 
1728.420 
1728.473 
1728.526 
1728.579 
1728.632 
1728.685 
1728.738 
1728.791 
1728.844 
1728.896 
1728.949 
1729.002 
1729.055 
1729.108 
1729.161 
1729.214 
1729.267 
1729.319 
1729.372 
1729.425 
1729.478 
1729.531 
1729.584 
1729.637 
1729.690 
1729.742 
1729.795 
1729.848 
1729.901 
1729.954 
1730.007 
1730.060 
1730.113 
1730.165 
1730.218 
1730.271 
1730.324 
1730.377 
1730.430 
1730.483 
1730.536 
1730.588 
1730.641 
1730.694 
1730.747 
1730.800 
1730.853 
1730.906 
1730.959 
1731.011 
1731.064 
1731.117 
1731.170 
1731.223 
1731.276 
1731.329 
1731.382 
1731.434 
1731.487 
1731.540 
1731.593 
1731.646 
1731.699 
1731.752 
1731.804 
1731.857 
1731.910 
1731.963 
1732.016 
1732.069 
1732.122 
1732.175 
1732.227 
1732.280 
1732.333 
1732.386 
1732.439 
1732.492 
1732.545 
1732.597 
1732.650 
1732.703 
1732.756 
1732.809 
1732.862 
1732.915 
1732.967 
1733.020 
1733.073 
1733.126 
1733.179 
1733.232 
1733.285 
1733.337 
1733.390 
1733.443 
1733.496 
1733.549 
1733.602 
1733.655 
1733.707 
1733.760 
1733.813 
1733.866 
1733.919 
1733.972 
1734.025 
1734.077 
1734.130 
1734.183 
1734.236 
1734.289 
1734.342 
1734.395 
1734.447 
1734.500 
1734.553 
1734.606 
1734.659 
1734.712 
1734.765 
1734.817 
1734.870 
1734.923 
1734.976 
1735.029 
1735.082 
1735.134 
1735.187 
1735.240 
1735.293 
1735.346 
1735.399 
1735.452 
1735.504 
1735.557 
1735.610 
1735.663 
1735.716 
1735.769 
1735.822 
1735.874 
1735.927 
1735.980 
1736.033 
1736.086 
1736.139 
1736.191 
1736.244 
1736.297 
1736.350 
1736.403 
1736.456 
1736.508 
1736.561 
1736.614 
1736.667 
1736.720 
1736.773 
1736.826 
1736.878 
1736.931 
1736.984 
1737.037 
1737.090 
1737.143 
1737.195 
1737.248 
1737.301 
1737.354 
1737.407 
1737.460 
1737.512 
1737.565 
1737.618 
1737.671 
1737.724 
1737.777 
1737.829 
1737.882 
1737.935 
1737.988 
1738.041 
1738.094 
1738.146 
1738.199 
1738.252 
1738.305 
1738.358 
1738.411 
1738.463 
1738.516 
1738.569 
1738.622 
1738.675 
1738.728 
1738.780 
1738.833 
1738.886 
1738.939 
1738.992 
1739.045 
1739.097 
1739.150 
1739.203 
1739.256 
1739.309 
1739.362 
1739.414 
1739.467 
1739.520 
1739.573 
1739.626 
1739.679 
1739.731 
1739.784 
1739.837 
1739.890 
1739.943 
1739.995 
1740.048 
1740.101 
1740.154 
1740.207 
1740.260 
1740.312 
1740.365 
1740.418 
1740.471 
1740.524 
1740.577 
1740.629 
1740.682 
1740.735 
1740.788 
1740.841 
1740.893 
1740.946 
1740.999 
1741.052 
1741.105 
1741.158 
1741.210 
1741.263 
1741.316 
1741.369 
1741.422 
1741.474 
1741.527 
1741.580 
1741.633 
1741.686 
1741.739 
1741.791 
1741.844 
1741.897 
1741.950 
1742.003 
1742.055 
1742.108 
1742.161 
1742.214 
1742.267 
1742.319 
1742.372 
1742.425 
1742.478 
1742.531 
1742.584 
1742.636 
1742.689 
1742.742 
1742.795 
1742.848 
1742.900 
1742.953 
1743.006 
1743.059 
1743.112 
1743.164 
1743.217 
1743.270 
1743.323 
1743.376 
1743.428 
1743.481 
1743.534 
1743.587 
1743.640 
1743.693 
1743.745 
1743.798 
1743.851 
1743.904 
1743.957 
1744.009 
1744.062 
1744.115 
1744.168 
1744.221 
1744.273 
1744.326 
1744.379 
1744.432 
1744.485 
1744.537 
1744.590 
1744.643 
1744.696 
1744.749 
1744.801 
1744.854 
1744.907 
1744.960 
1745.013 
1745.065 
1745.118 
1745.171 
1745.224 
1745.277 
1745.329 
1745.382 
1745.435 
1745.488 
1745.541 
1745.593 
1745.646 
1745.699 
1745.752 
1745.805 
1745.857 
1745.910 
1745.963 
1746.016 
1746.068 
1746.121 
1746.174 
1746.227 
1746.280 
1746.332 
1746.385 
1746.438 
1746.491 
1746.544 
1746.596 
1746.649 
1746.702 
1746.755 
1746.808 
1746.860 
1746.913 
1746.966 
1747.019 
1747.071 
1747.124 
1747.177 
1747.230 
1747.283 
1747.335 
1747.388 
1747.441 
1747.494 
1747.547 
1747.599 
1747.652 
1747.705 
1747.758 
1747.811 
1747.863 
1747.916 
1747.969 
1748.022 
1748.074 
1748.127 
1748.180 
1748.233 
1748.286 
1748.338 
1748.391 
1748.444 
1748.497 
1748.549 
1748.602 
1748.655 
1748.708 
1748.761 
1748.813 
1748.866 
1748.919 
1748.972 
1749.024 
1749.077 
1749.130 
1749.183 
1749.236 
1749.288 
1749.341 
1749.394 
1749.447 
1749.499 
1749.552 
1749.605 
1749.658 
1749.711 
1749.763 
1749.816 
1749.869 
1749.922 
1749.974 
1750.027 
1750.080 
1750.133 
1750.186 
1750.238 
1750.291 
1750.344 
1750.397 
1750.449 
1750.502 
1750.555 
1750.608 
1750.660 
1750.713 
1750.766 
1750.819 
1750.872 
1750.924 
1750.977 
1751.030 
1751.083 
1751.135 
1751.188 
1751.241 
1751.294 
1751.346 
1751.399 
1751.452 
1751.505 
1751.558 
1751.610 
1751.663 
1751.716 
1751.769 
1751.821 
1751.874 
1751.927 
1751.980 
1752.032 
1752.085 
1752.138 
1752.191 
1752.243 
1752.296 
1752.349 
1752.402 
1752.454 
1752.507 
1752.560 
1752.613 
1752.666 
1752.718 
1752.771 
1752.824 
1752.877 
1752.929 
1752.982 
1753.035 
1753.088 
1753.140 
1753.193 
1753.246 
1753.299 
1753.351 
1753.404 
1753.457 
1753.510 
1753.562 
1753.615 
1753.668 
1753.721 
1753.773 
1753.826 
1753.879 
1753.932 
1753.984 
1754.037 
1754.090 
1754.143 
1754.195 
1754.248 
1754.301 
1754.354 
1754.406 
1754.459 
1754.512 
1754.565 
1754.617 
1754.670 
1754.723 
1754.776 
1754.828 
1754.881 
1754.934 
1754.987 
1755.039 
1755.092 
1755.145 
1755.198 
1755.250 
1755.303 
1755.356 
1755.409 
1755.461 
1755.514 
1755.567 
1755.620 
1755.672 
1755.725 
1755.778 
1755.831 
1755.883 
1755.936 
1755.989 
1756.042 
1756.094 
1756.147 
1756.200 
1756.253 
1756.305 
1756.358 
1756.411 
1756.464 
1756.516 
1756.569 
1756.622 
1756.674 
1756.727 
1756.780 
1756.833 
1756.885 
1756.938 
1756.991 
1757.044 
1757.096 
1757.149 
1757.202 
1757.255 
1757.307 
1757.360 
1757.413 
1757.466 
1757.518 
1757.571 
1757.624 
1757.676 
1757.729 
1757.782 
1757.835 
1757.887 
1757.940 
1757.993 
1758.046 
1758.098 
1758.151 
1758.204 
1758.257 
1758.309 
1758.362 
1758.415 
1758.467 
1758.520 
1758.573 
1758.626 
1758.678 
1758.731 
1758.784 
1758.837 
1758.889 
1758.942 
1758.995 
1759.047 
1759.100 
1759.153 
1759.206 
1759.258 
1759.311 
1759.364 
1759.417 
1759.469 
1759.522 
1759.575 
1759.627 
1759.680 
1759.733 
1759.786 
1759.838 
1759.891 
1759.944 
1759.996 
1760.049 
1760.102 
1760.155 
1760.207 
1760.260 
1760.313 
1760.366 
1760.418 
1760.471 
1760.524 
1760.576 
1760.629 
1760.682 
1760.735 
1760.787 
1760.840 
1760.893 
1760.945 
1760.998 
1761.051 
1761.104 
1761.156 
1761.209 
1761.262 
1761.314 
1761.367 
1761.420 
1761.473 
1761.525 
1761.578 
1761.631 
1761.683 
1761.736 
1761.789 
1761.842 
1761.894 
1761.947 
1762.000 
1762.052 
1762.105 
1762.158 
1762.211 
1762.263 
1762.316 
1762.369 
1762.421 
1762.474 
1762.527 
1762.580 
1762.632 
1762.685 
1762.738 
1762.790 
1762.843 
1762.896 
1762.948 
1763.001 
1763.054 
1763.107 
1763.159 
1763.212 
1763.265 
1763.317 
1763.370 
1763.423 
1763.476 
1763.528 
1763.581 
1763.634 
1763.686 
1763.739 
1763.792 
1763.844 
1763.897 
1763.950 
1764.003 
1764.055 
1764.108 
1764.161 
1764.213 
1764.266 
1764.319 
1764.371 
1764.424 
1764.477 
1764.530 
1764.582 
1764.635 
1764.688 
1764.740 
1764.793 
1764.846 
1764.898 
1764.951 
1765.004 
1765.057 
1765.109 
1765.162 
1765.215 
1765.267 
1765.320 
1765.373 
1765.425 
1765.478 
1765.531 
1765.583 
1765.636 
1765.689 
1765.742 
1765.794 
1765.847 
1765.900 
1765.952 
1766.005 
1766.058 
1766.110 
1766.163 
1766.216 
1766.268 
1766.321 
1766.374 
1766.427 
1766.479 
1766.532 
1766.585 
1766.637 
1766.690 
1766.743 
1766.795 
1766.848 
1766.901 
1766.953 
1767.006 
1767.059 
1767.111 
1767.164 
1767.217 
1767.270 
1767.322 
1767.375 
1767.428 
1767.480 
1767.533 
1767.586 
1767.638 
1767.691 
1767.744 
1767.796 
1767.849 
1767.902 
1767.954 
1768.007 
1768.060 
1768.112 
1768.165 
1768.218 
1768.270 
1768.323 
1768.376 
1768.429 
1768.481 
1768.534 
1768.587 
1768.639 
1768.692 
1768.745 
1768.797 
1768.850 
1768.903 
1768.955 
1769.008 
1769.061 
1769.113 
1769.166 
1769.219 
1769.271 
1769.324 
1769.377 
1769.429 
1769.482 
1769.535 
1769.587 
1769.640 
1769.693 
1769.745 
1769.798 
1769.851 
1769.903 
1769.956 
1770.009 
1770.061 
1770.114 
1770.167 
1770.219 
1770.272 
1770.325 
1770.377 
1770.430 
1770.483 
1770.535 
1770.588 
1770.641 
1770.693 
1770.746 
1770.799 
1770.851 
1770.904 
1770.957 
1771.009 
1771.062 
1771.115 
1771.167 
1771.220 
1771.273 
1771.325 
1771.378 
1771.431 
1771.483 
1771.536 
1771.589 
1771.641 
1771.694 
1771.747 
1771.799 
1771.852 
1771.905 
1771.957 
1772.010 
1772.063 
1772.115 
1772.168 
1772.221 
1772.273 
1772.326 
1772.379 
1772.431 
1772.484 
1772.537 
1772.589 
1772.642 
1772.695 
1772.747 
1772.800 
1772.853 
1772.905 
1772.958 
1773.011 
1773.063 
1773.116 
1773.169 
1773.221 
1773.274 
1773.326 
1773.379 
1773.432 
1773.484 
1773.537 
1773.590 
1773.642 
1773.695 
1773.748 
1773.800 
1773.853 
1773.906 
1773.958 
1774.011 
1774.064 
1774.116 
1774.169 
1774.222 
1774.274 
1774.327 
1774.380 
1774.432 
1774.485 
1774.537 
1774.590 
1774.643 
1774.695 
1774.748 
1774.801 
1774.853 
1774.906 
1774.959 
1775.011 
1775.064 
1775.117 
1775.169 
1775.222 
1775.274 
1775.327 
1775.380 
1775.432 
1775.485 
1775.538 
1775.590 
1775.643 
1775.696 
1775.748 
1775.801 
1775.854 
1775.906 
1775.959 
1776.011 
1776.064 
1776.117 
1776.169 
1776.222 
1776.275 
1776.327 
1776.380 
1776.433 
1776.485 
1776.538 
1776.590 
1776.643 
1776.696 
1776.748 
1776.801 
1776.854 
1776.906 
1776.959 
1777.012 
1777.064 
1777.117 
1777.169 
1777.222 
1777.275 
1777.327 
1777.380 
1777.433 
1777.485 
1777.538 
1777.591 
1777.643 
1777.696 
1777.748 
1777.801 
1777.854 
1777.906 
1777.959 
1778.012 
1778.064 
1778.117 
1778.169 
1778.222 
1778.275 
1778.327 
1778.380 
1778.433 
1778.485 
1778.538 
1778.590 
1778.643 
1778.696 
1778.748 
1778.801 
1778.854 
1778.906 
1778.959 
1779.011 
1779.064 
1779.117 
1779.169 
1779.222 
1779.275 
1779.327 
1779.380 
1779.432 
1779.485 
1779.538 
1779.590 
1779.643 
1779.696 
1779.748 
1779.801 
1779.853 
1779.906 
1779.959 
1780.011 
1780.064 
1780.117 
1780.169 
1780.222 
1780.274 
1780.327 
1780.380 
1780.432 
1780.485 
1780.537 
1780.590 
1780.643 
1780.695 
1780.748 
1780.801 
1780.853 
1780.906 
1780.958 
1781.011 
1781.064 
1781.116 
1781.169 
1781.221 
1781.274 
1781.327 
1781.379 
1781.432 
1781.485 
1781.537 
1781.590 
1781.642 
1781.695 
1781.748 
1781.800 
1781.853 
1781.905 
1781.958 
1782.011 
1782.063 
1782.116 
1782.168 
1782.221 
1782.274 
1782.326 
1782.379 
1782.432 
1782.484 
1782.537 
1782.589 
1782.642 
1782.695 
1782.747 
1782.800 
1782.852 
1782.905 
1782.958 
1783.010 
1783.063 
1783.115 
1783.168 
1783.221 
1783.273 
1783.326 
1783.378 
1783.431 
1783.484 
1783.536 
1783.589 
1783.641 
1783.694 
1783.747 
1783.799 
1783.852 
1783.904 
1783.957 
1784.010 
1784.062 
1784.115 
1784.167 
1784.220 
1784.273 
1784.325 
1784.378 
1784.430 
1784.483 
1784.536 
1784.588 
1784.641 
1784.693 
1784.746 
1784.799 
1784.851 
1784.904 
1784.956 
1785.009 
1785.062 
1785.114 
1785.167 
1785.219 
1785.272 
1785.324 
1785.377 
1785.430 
1785.482 
1785.535 
1785.587 
1785.640 
1785.693 
1785.745 
1785.798 
1785.850 
1785.903 
1785.956 
1786.008 
1786.061 
1786.113 
1786.166 
1786.219 
1786.271 
1786.324 
1786.376 
1786.429 
1786.481 
1786.534 
1786.587 
1786.639 
1786.692 
1786.744 
1786.797 
1786.850 
1786.902 
1786.955 
1787.007 
1787.060 
1787.112 
1787.165 
1787.218 
1787.270 
1787.323 
1787.375 
1787.428 
1787.481 
1787.533 
1787.586 
1787.638 
1787.691 
1787.743 
1787.796 
1787.849 
1787.901 
1787.954 
1788.006 
1788.059 
1788.111 
1788.164 
1788.217 
1788.269 
1788.322 
1788.374 
1788.427 
1788.480 
1788.532 
1788.585 
1788.637 
1788.690 
1788.742 
1788.795 
1788.848 
1788.900 
1788.953 
1789.005 
1789.058 
1789.110 
1789.163 
1789.216 
1789.268 
1789.321 
1789.373 
1789.426 
1789.478 
1789.531 
1789.584 
1789.636 
1789.689 
1789.741 
1789.794 
1789.846 
1789.899 
1789.952 
1790.004 
1790.057 
1790.109 
1790.162 
1790.214 
1790.267 
1790.320 
1790.372 
1790.425 
1790.477 
1790.530 
1790.582 
1790.635 
1790.687 
1790.740 
1790.793 
1790.845 
1790.898 
1790.950 
1791.003 
1791.055 
1791.108 
1791.161 
1791.213 
1791.266 
1791.318 
1791.371 
1791.423 
1791.476 
1791.528 
1791.581 
1791.634 
1791.686 
1791.739 
1791.791 
1791.844 
1791.896 
1791.949 
1792.002 
1792.054 
1792.107 
1792.159 
1792.212 
1792.264 
1792.317 
1792.369 
1792.422 
1792.475 
1792.527 
1792.580 
1792.632 
1792.685 
1792.737 
1792.790 
1792.842 
1792.895 
1792.948 
1793.000 
1793.053 
1793.105 
1793.158 
1793.210 
1793.263 
1793.315 
1793.368 
1793.420 
1793.473 
1793.526 
1793.578 
1793.631 
1793.683 
1793.736 
1793.788 
1793.841 
1793.893 
1793.946 
1793.999 
1794.051 
1794.104 
1794.156 
1794.209 
1794.261 
1794.314 
1794.366 
1794.419 
1794.471 
1794.524 
1794.577 
1794.629 
1794.682 
1794.734 
1794.787 
1794.839 
1794.892 
1794.944 
1794.997 
1795.049 
1795.102 
1795.154 
1795.207 
1795.260 
1795.312 
1795.365 
1795.417 
1795.470 
1795.522 
1795.575 
1795.627 
1795.680 
1795.732 
1795.785 
1795.838 
1795.890 
1795.943 
1795.995 
1796.048 
1796.100 
1796.153 
1796.205 
1796.258 
1796.310 
1796.363 
1796.415 
1796.468 
1796.520 
1796.573 
1796.626 
1796.678 
1796.731 
1796.783 
1796.836 
1796.888 
1796.941 
1796.993 
1797.046 
1797.098 
1797.151 
1797.203 
1797.256 
1797.308 
1797.361 
1797.414 
1797.466 
1797.519 
1797.571 
1797.624 
1797.676 
1797.729 
1797.781 
1797.834 
1797.886 
1797.939 
1797.991 
1798.044 
1798.096 
1798.149 
1798.201 
1798.254 
1798.306 
1798.359 
1798.412 
1798.464 
1798.517 
1798.569 
1798.622 
1798.674 
1798.727 
1798.779 
1798.832 
1798.884 
1798.937 
1798.989 
1799.042 
1799.094 
1799.147 
1799.199 
1799.252 
1799.304 
1799.357 
1799.409 
1799.462 
1799.515 
1799.567 
1799.620 
1799.672 
1799.725 
1799.777 
1799.830 
1799.882 
1799.935 
1799.987 
1800.040 
1800.092 
1800.145 
1800.197 
1800.250 
1800.302 
1800.355 
1800.407 
1800.460 
1800.512 
1800.565 
1800.617 
1800.670 
1800.722 
1800.775 
1800.827 
1800.880 
1800.932 
1800.985 
1801.037 
1801.090 
1801.142 
1801.195 
1801.247 
1801.300 
1801.353 
1801.405 
1801.458 
1801.510 
1801.563 
1801.615 
1801.668 
1801.720 
1801.773 
1801.825 
1801.878 
1801.930 
1801.983 
1802.035 
1802.088 
1802.140 
1802.193 
1802.245 
1802.298 
1802.350 
1802.403 
1802.455 
1802.508 
1802.560 
1802.613 
1802.665 
1802.718 
1802.770 
1802.823 
1802.875 
1802.928 
1802.980 
1803.033 
1803.085 
1803.138 
1803.190 
1803.243 
1803.295 
1803.348 
1803.400 
1803.453 
1803.505 
1803.558 
1803.610 
1803.663 
1803.715 
1803.768 
1803.820 
1803.873 
1803.925 
1803.978 
1804.030 
1804.083 
1804.135 
1804.188 
1804.240 
1804.293 
1804.345 
1804.398 
1804.450 
1804.503 
1804.555 
1804.608 
1804.660 
1804.713 
1804.765 
1804.818 
1804.870 
1804.923 
1804.975 
1805.028 
1805.080 
1805.133 
1805.185 
1805.237 
1805.290 
1805.342 
1805.395 
1805.447 
1805.500 
1805.552 
1805.605 
1805.657 
1805.710 
1805.762 
1805.815 
1805.867 
1805.920 
1805.972 
1806.025 
1806.077 
1806.130 
1806.182 
1806.235 
1806.287 
1806.340 
1806.392 
1806.445 
1806.497 
1806.550 
1806.602 
1806.655 
1806.707 
1806.760 
1806.812 
1806.865 
1806.917 
1806.970 
1807.022 
1807.074 
1807.127 
1807.179 
1807.232 
1807.284 
1807.337 
1807.389 
1807.442 
1807.494 
1807.547 
1807.599 
1807.652 
1807.704 
1807.757 
1807.809 
1807.862 
1807.914 
1807.967 
1808.019 
1808.072 
1808.124 
1808.176 
1808.229 
1808.281 
1808.334 
1808.386 
1808.439 
1808.491 
1808.544 
1808.596 
1808.649 
1808.701 
1808.754 
1808.806 
1808.859 
1808.911 
1808.964 
1809.016 
1809.069 
1809.121 
1809.173 
1809.226 
1809.278 
1809.331 
1809.383 
1809.436 
1809.488 
1809.541 
1809.593 
1809.646 
1809.698 
1809.751 
1809.803 
1809.856 
1809.908 
1809.960 
1810.013 
1810.065 
1810.118 
1810.170 
1810.223 
1810.275 
1810.328 
1810.380 
1810.433 
1810.485 
1810.538 
1810.590 
1810.642 
1810.695 
1810.747 
1810.800 
1810.852 
1810.905 
1810.957 
1811.010 
1811.062 
1811.115 
1811.167 
1811.220 
1811.272 
1811.324 
1811.377 
1811.429 
1811.482 
1811.534 
1811.587 
1811.639 
1811.692 
1811.744 
1811.797 
1811.849 
1811.902 
1811.954 
1812.006 
1812.059 
1812.111 
1812.164 
1812.216 
1812.269 
1812.321 
1812.374 
1812.426 
1812.479 
1812.531 
1812.583 
1812.636 
1812.688 
1812.741 
1812.793 
1812.846 
1812.898 
1812.951 
1813.003 
1813.055 
1813.108 
1813.160 
1813.213 
1813.265 
1813.318 
1813.370 
1813.423 
1813.475 
1813.527 
1813.580 
1813.632 
1813.685 
1813.737 
1813.790 
1813.842 
1813.895 
1813.947 
1814.000 
1814.052 
1814.104 
1814.157 
1814.209 
1814.262 
1814.314 
1814.367 
1814.419 
1814.472 
1814.524 
1814.576 
1814.629 
1814.681 
1814.734 
1814.786 
1814.839 
1814.891 
1814.943 
1814.996 
1815.048 
1815.101 
1815.153 
1815.206 
1815.258 
1815.311 
1815.363 
1815.415 
1815.468 
1815.520 
1815.573 
1815.625 
1815.678 
1815.730 
1815.782 
1815.835 
1815.887 
1815.940 
1815.992 
1816.045 
1816.097 
1816.150 
1816.202 
1816.254 
1816.307 
1816.359 
1816.412 
1816.464 
1816.517 
1816.569 
1816.621 
1816.674 
1816.726 
1816.779 
1816.831 
1816.884 
1816.936 
1816.988 
1817.041 
1817.093 
1817.146 
1817.198 
1817.251 
1817.303 
1817.355 
1817.408 
1817.460 
1817.513 
1817.565 
1817.618 
1817.670 
1817.722 
1817.775 
1817.827 
1817.880 
1817.932 
1817.985 
1818.037 
1818.089 
1818.142 
1818.194 
1818.247 
1818.299 
1818.351 
1818.404 
1818.456 
1818.509 
1818.561 
1818.614 
1818.666 
1818.718 
1818.771 
1818.823 
1818.876 
1818.928 
1818.981 
1819.033 
1819.085 
1819.138 
1819.190 
1819.243 
1819.295 
1819.347 
1819.400 
1819.452 
1819.505 
1819.557 
1819.610 
1819.662 
1819.714 
1819.767 
1819.819 
1819.872 
1819.924 
1819.976 
1820.029 
1820.081 
1820.134 
1820.186 
1820.239 
1820.291 
1820.343 
1820.396 
1820.448 
1820.501 
1820.553 
1820.605 
1820.658 
1820.710 
1820.763 
1820.815 
1820.867 
1820.920 
1820.972 
1821.025 
1821.077 
1821.129 
1821.182 
1821.234 
1821.287 
1821.339 
1821.392 
1821.444 
1821.496 
1821.549 
1821.601 
1821.654 
1821.706 
1821.758 
1821.811 
1821.863 
1821.916 
1821.968 
1822.020 
1822.073 
1822.125 
1822.178 
1822.230 
1822.282 
1822.335 
1822.387 
1822.440 
1822.492 
1822.544 
1822.597 
1822.649 
1822.702 
1822.754 
1822.806 
1822.859 
1822.911 
1822.964 
1823.016 
1823.068 
1823.121 
1823.173 
1823.226 
1823.278 
1823.330 
1823.383 
1823.435 
1823.488 
1823.540 
1823.592 
1823.645 
1823.697 
1823.750 
1823.802 
1823.854 
1823.907 
1823.959 
1824.012 
1824.064 
1824.116 
1824.169 
1824.221 
1824.273 
1824.326 
1824.378 
1824.431 
1824.483 
1824.535 
1824.588 
1824.640 
1824.693 
1824.745 
1824.797 
1824.850 
1824.902 
1824.955 
1825.007 
1825.059 
1825.112 
1825.164 
1825.216 
1825.269 
1825.321 
1825.374 
1825.426 
1825.478 
1825.531 
1825.583 
1825.636 
1825.688 
1825.740 
1825.793 
1825.845 
1825.897 
1825.950 
1826.002 
1826.055 
1826.107 
1826.159 
1826.212 
1826.264 
1826.317 
1826.369 
1826.421 
1826.474 
1826.526 
1826.578 
1826.631 
1826.683 
1826.736 
1826.788 
1826.840 
1826.893 
1826.945 
1826.997 
1827.050 
1827.102 
1827.155 
1827.207 
1827.259 
1827.312 
1827.364 
1827.416 
1827.469 
1827.521 
1827.574 
1827.626 
1827.678 
1827.731 
1827.783 
1827.835 
1827.888 
1827.940 
1827.993 
1828.045 
1828.097 
1828.150 
1828.202 
1828.254 
1828.307 
1828.359 
1828.412 
1828.464 
1828.516 
1828.569 
1828.621 
1828.673 
1828.726 
1828.778 
1828.831 
1828.883 
1828.935 
1828.988 
1829.040 
1829.092 
1829.145 
1829.197 
1829.249 
1829.302 
1829.354 
1829.407 
1829.459 
1829.511 
1829.564 
1829.616 
1829.668 
1829.721 
1829.773 
1829.825 
1829.878 
1829.930 
1829.983 
1830.035 
1830.087 
1830.140 
1830.192 
1830.244 
1830.297 
1830.349 
1830.401 
1830.454 
1830.506 
1830.559 
1830.611 
1830.663 
1830.716 
1830.768 
1830.820 
1830.873 
1830.925 
1830.977 
1831.030 
1831.082 
1831.134 
1831.187 
1831.239 
1831.292 
1831.344 
1831.396 
1831.449 
1831.501 
1831.553 
1831.606 
1831.658 
1831.710 
1831.763 
1831.815 
1831.867 
1831.920 
1831.972 
1832.024 
1832.077 
1832.129 
1832.182 
1832.234 
1832.286 
1832.339 
1832.391 
1832.443 
1832.496 
1832.548 
1832.600 
1832.653 
1832.705 
1832.757 
1832.810 
1832.862 
1832.914 
1832.967 
1833.019 
1833.071 
1833.124 
1833.176 
1833.229 
1833.281 
1833.333 
1833.386 
1833.438 
1833.490 
1833.543 
1833.595 
1833.647 
1833.700 
1833.752 
1833.804 
1833.857 
1833.909 
1833.961 
1834.014 
1834.066 
1834.118 
1834.171 
1834.223 
1834.275 
1834.328 
1834.380 
1834.432 
1834.485 
1834.537 
1834.589 
1834.642 
1834.694 
1834.746 
1834.799 
1834.851 
1834.903 
1834.956 
1835.008 
1835.060 
1835.113 
1835.165 
1835.217 
1835.270 
1835.322 
1835.374 
1835.427 
1835.479 
1835.531 
1835.584 
1835.636 
1835.688 
1835.741 
1835.793 
1835.845 
1835.898 
1835.950 
1836.002 
1836.055 
1836.107 
1836.159 
1836.212 
1836.264 
1836.316 
1836.369 
1836.421 
1836.473 
1836.526 
1836.578 
1836.630 
1836.683 
1836.735 
1836.787 
1836.840 
1836.892 
1836.944 
1836.997 
1837.049 
1837.101 
1837.154 
1837.206 
1837.258 
1837.311 
1837.363 
1837.415 
1837.468 
1837.520 
1837.572 
1837.625 
1837.677 
1837.729 
1837.782 
1837.834 
1837.886 
1837.939 
1837.991 
1838.043 
1838.095 
1838.148 
1838.200 
1838.252 
1838.305 
1838.357 
1838.409 
1838.462 
1838.514 
1838.566 
1838.619 
1838.671 
1838.723 
1838.776 
1838.828 
1838.880 
1838.933 
1838.985 
1839.037 
1839.090 
1839.142 
1839.194 
1839.246 
1839.299 
1839.351 
1839.403 
1839.456 
1839.508 
1839.560 
1839.613 
1839.665 
1839.717 
1839.770 
1839.822 
1839.874 
1839.927 
1839.979 
1840.031 
1840.083 
1840.136 
1840.188 
1840.240 
1840.293 
1840.345 
1840.397 
1840.450 
1840.502 
1840.554 
1840.607 
1840.659 
1840.711 
1840.763 
1840.816 
1840.868 
1840.920 
1840.973 
1841.025 
1841.077 
1841.130 
1841.182 
1841.234 
1841.287 
1841.339 
1841.391 
1841.443 
1841.496 
1841.548 
1841.600 
1841.653 
1841.705 
1841.757 
1841.810 
1841.862 
1841.914 
1841.966 
1842.019 
1842.071 
1842.123 
1842.176 
1842.228 
1842.280 
1842.333 
1842.385 
1842.437 
1842.489 
1842.542 
1842.594 
1842.646 
1842.699 
1842.751 
1842.803 
1842.856 
1842.908 
1842.960 
1843.012 
1843.065 
1843.117 
1843.169 
1843.222 
1843.274 
1843.326 
1843.378 
1843.431 
1843.483 
1843.535 
1843.588 
1843.640 
1843.692 
1843.745 
1843.797 
1843.849 
1843.901 
1843.954 
1844.006 
1844.058 
1844.111 
1844.163 
1844.215 
1844.267 
1844.320 
1844.372 
1844.424 
1844.477 
1844.529 
1844.581 
1844.633 
1844.686 
1844.738 
1844.790 
1844.843 
1844.895 
1844.947 
1844.999 
1845.052 
1845.104 
1845.156 
1845.209 
1845.261 
1845.313 
1845.365 
1845.418 
1845.470 
1845.522 
1845.575 
1845.627 
1845.679 
1845.731 
1845.784 
1845.836 
1845.888 
1845.941 
1845.993 
1846.045 
1846.097 
1846.150 
1846.202 
1846.254 
1846.306 
1846.359 
1846.411 
1846.463 
1846.516 
1846.568 
1846.620 
1846.672 
1846.725 
1846.777 
1846.829 
1846.882 
1846.934 
1846.986 
1847.038 
1847.091 
1847.143 
1847.195 
1847.247 
1847.300 
1847.352 
1847.404 
1847.457 
1847.509 
1847.561 
1847.613 
1847.666 
1847.718 
1847.770 
1847.822 
1847.875 
1847.927 
1847.979 
1848.031 
1848.084 
1848.136 
1848.188 
1848.241 
1848.293 
1848.345 
1848.397 
1848.450 
1848.502 
1848.554 
1848.606 
1848.659 
1848.711 
1848.763 
1848.815 
1848.868 
1848.920 
1848.972 
1849.025 
1849.077 
1849.129 
1849.181 
1849.234 
1849.286 
1849.338 
1849.390 
1849.443 
1849.495 
1849.547 
1849.599 
1849.652 
1849.704 
1849.756 
1849.808 
1849.861 
1849.913 
1849.965 
1850.018 
1850.070 
1850.122 
1850.174 
1850.227 
1850.279 
1850.331 
1850.383 
1850.436 
1850.488 
1850.540 
1850.592 
1850.645 
1850.697 
1850.749 
1850.801 
1850.854 
1850.906 
1850.958 
1851.010 
1851.063 
1851.115 
1851.167 
1851.219 
1851.272 
1851.324 
1851.376 
1851.428 
1851.481 
1851.533 
1851.585 
1851.637 
1851.690 
1851.742 
1851.794 
1851.846 
1851.899 
1851.951 
1852.003 
1852.055 
1852.108 
1852.160 
1852.212 
1852.264 
1852.317 
1852.369 
1852.421 
1852.473 
1852.526 
1852.578 
1852.630 
1852.682 
1852.735 
1852.787 
1852.839 
1852.891 
1852.944 
1852.996 
1853.048 
1853.100 
1853.153 
1853.205 
1853.257 
1853.309 
1853.362 
1853.414 
1853.466 
1853.518 
1853.571 
1853.623 
1853.675 
1853.727 
1853.779 
1853.832 
1853.884 
1853.936 
1853.988 
1854.041 
1854.093 
1854.145 
1854.197 
1854.250 
1854.302 
1854.354 
1854.406 
1854.459 
1854.511 
1854.563 
1854.615 
1854.667 
1854.720 
1854.772 
1854.824 
1854.876 
1854.929 
1854.981 
1855.033 
1855.085 
1855.138 
1855.190 
1855.242 
1855.294 
1855.347 
1855.399 
1855.451 
1855.503 
1855.555 
1855.608 
1855.660 
1855.712 
1855.764 
1855.817 
1855.869 
1855.921 
1855.973 
1856.026 
1856.078 
1856.130 
1856.182 
1856.234 
1856.287 
1856.339 
1856.391 
1856.443 
1856.496 
1856.548 
1856.600 
1856.652 
1856.704 
1856.757 
1856.809 
1856.861 
1856.913 
1856.966 
1857.018 
1857.070 
1857.122 
1857.174 
1857.227 
1857.279 
1857.331 
1857.383 
1857.436 
1857.488 
1857.540 
1857.592 
1857.644 
1857.697 
1857.749 
1857.801 
1857.853 
1857.906 
1857.958 
1858.010 
1858.062 
1858.114 
1858.167 
1858.219 
1858.271 
1858.323 
1858.375 
1858.428 
1858.480 
1858.532 
1858.584 
1858.637 
1858.689 
1858.741 
1858.793 
1858.845 
1858.898 
1858.950 
1859.002 
1859.054 
1859.106 
1859.159 
1859.211 
1859.263 
1859.315 
1859.368 
1859.420 
1859.472 
1859.524 
1859.576 
1859.629 
1859.681 
1859.733 
1859.785 
1859.837 
1859.890 
1859.942 
1859.994 
1860.046 
1860.098 
1860.151 
1860.203 
1860.255 
1860.307 
1860.359 
1860.412 
1860.464 
1860.516 
1860.568 
1860.621 
1860.673 
1860.725 
1860.777 
1860.829 
1860.882 
1860.934 
1860.986 
1861.038 
1861.090 
1861.143 
1861.195 
1861.247 
1861.299 
1861.351 
1861.404 
1861.456 
1861.508 
1861.560 
1861.612 
1861.665 
1861.717 
1861.769 
1861.821 
1861.873 
1861.926 
1861.978 
1862.030 
1862.082 
1862.134 
1862.187 
1862.239 
1862.291 
1862.343 
1862.395 
1862.447 
1862.500 
1862.552 
1862.604 
1862.656 
1862.708 
1862.761 
1862.813 
1862.865 
1862.917 
1862.969 
1863.022 
1863.074 
1863.126 
1863.178 
1863.230 
1863.283 
1863.335 
1863.387 
1863.439 
1863.491 
1863.544 
1863.596 
1863.648 
1863.700 
1863.752 
1863.804 
1863.857 
1863.909 
1863.961 
1864.013 
1864.065 
1864.118 
1864.170 
1864.222 
1864.274 
1864.326 
1864.379 
1864.431 
1864.483 
1864.535 
1864.587 
1864.639 
1864.692 
1864.744 
1864.796 
1864.848 
1864.900 
1864.953 
1865.005 
1865.057 
1865.109 
1865.161 
1865.213 
1865.266 
1865.318 
1865.370 
1865.422 
1865.474 
1865.526 
1865.579 
1865.631 
1865.683 
1865.735 
1865.787 
1865.840 
1865.892 
1865.944 
1865.996 
1866.048 
1866.100 
1866.153 
1866.205 
1866.257 
1866.309 
1866.361 
1866.413 
1866.466 
1866.518 
1866.570 
1866.622 
1866.674 
1866.727 
1866.779 
1866.831 
1866.883 
1866.935 
1866.987 
1867.040 
1867.092 
1867.144 
1867.196 
1867.248 
1867.300 
1867.353 
1867.405 
1867.457 
1867.509 
1867.561 
1867.613 
1867.666 
1867.718 
1867.770 
1867.822 
1867.874 
1867.926 
1867.979 
1868.031 
1868.083 
1868.135 
1868.187 
1868.239 
1868.292 
1868.344 
1868.396 
1868.448 
1868.500 
1868.552 
1868.605 
1868.657 
1868.709 
1868.761 
1868.813 
1868.865 
1868.918 
1868.970 
1869.022 
1869.074 
1869.126 
1869.178 
1869.231 
1869.283 
1869.335 
1869.387 
1869.439 
1869.491 
1869.543 
1869.596 
1869.648 
1869.700 
1869.752 
1869.804 
1869.856 
1869.909 
1869.961 
1870.013 
1870.065 
1870.117 
1870.169 
1870.221 
1870.274 
1870.326 
1870.378 
1870.430 
1870.482 
1870.534 
1870.587 
1870.639 
1870.691 
1870.743 
1870.795 
1870.847 
1870.899 
1870.952 
1871.004 
1871.056 
1871.108 
1871.160 
1871.212 
1871.265 
1871.317 
1871.369 
1871.421 
1871.473 
1871.525 
1871.577 
1871.630 
1871.682 
1871.734 
1871.786 
1871.838 
1871.890 
1871.942 
1871.995 
1872.047 
1872.099 
1872.151 
1872.203 
1872.255 
1872.307 
1872.360 
1872.412 
1872.464 
1872.516 
1872.568 
1872.620 
1872.672 
1872.725 
1872.777 
1872.829 
1872.881 
1872.933 
1872.985 
1873.037 
1873.090 
1873.142 
1873.194 
1873.246 
1873.298 
1873.350 
1873.402 
1873.455 
1873.507 
1873.559 
1873.611 
1873.663 
1873.715 
1873.767 
1873.819 
1873.872 
1873.924 
1873.976 
1874.028 
1874.080 
1874.132 
1874.184 
1874.237 
1874.289 
1874.341 
1874.393 
1874.445 
1874.497 
1874.549 
1874.602 
1874.654 
1874.706 
1874.758 
1874.810 
1874.862 
1874.914 
1874.966 
1875.019 
1875.071 
1875.123 
1875.175 
1875.227 
1875.279 
1875.331 
1875.383 
1875.436 
1875.488 
1875.540 
1875.592 
1875.644 
1875.696 
1875.748 
1875.800 
1875.853 
1875.905 
1875.957 
1876.009 
1876.061 
1876.113 
1876.165 
1876.217 
1876.270 
1876.322 
1876.374 
1876.426 
1876.478 
1876.530 
1876.582 
1876.634 
1876.687 
1876.739 
1876.791 
1876.843 
1876.895 
1876.947 
1876.999 
1877.051 
1877.104 
1877.156 
1877.208 
1877.260 
1877.312 
1877.364 
1877.416 
1877.468 
1877.520 
1877.573 
1877.625 
1877.677 
1877.729 
1877.781 
1877.833 
1877.885 
1877.937 
1877.989 
1878.042 
1878.094 
1878.146 
1878.198 
1878.250 
1878.302 
1878.354 
1878.406 
1878.459 
1878.511 
1878.563 
1878.615 
1878.667 
1878.719 
1878.771 
1878.823 
1878.875 
1878.928 
1878.980 
1879.032 
1879.084 
1879.136 
1879.188 
1879.240 
1879.292 
1879.344 
1879.396 
1879.449 
1879.501 
1879.553 
1879.605 
1879.657 
1879.709 
1879.761 
1879.813 
1879.865 
1879.918 
1879.970 
1880.022 
1880.074 
1880.126 
1880.178 
1880.230 
1880.282 
1880.334 
1880.386 
1880.439 
1880.491 
1880.543 
1880.595 
1880.647 
1880.699 
1880.751 
1880.803 
1880.855 
1880.907 
1880.960 
1881.012 
1881.064 
1881.116 
1881.168 
1881.220 
1881.272 
1881.324 
1881.376 
1881.428 
1881.481 
1881.533 
1881.585 
1881.637 
1881.689 
1881.741 
1881.793 
1881.845 
1881.897 
1881.949 
1882.001 
1882.054 
1882.106 
1882.158 
1882.210 
1882.262 
1882.314 
1882.366 
1882.418 
1882.470 
1882.522 
1882.574 
1882.627 
1882.679 
1882.731 
1882.783 
1882.835 
1882.887 
1882.939 
1882.991 
1883.043 
1883.095 
1883.147 
1883.200 
1883.252 
1883.304 
1883.356 
1883.408 
1883.460 
1883.512 
1883.564 
1883.616 
1883.668 
1883.720 
1883.773 
1883.825 
1883.877 
1883.929 
1883.981 
1884.033 
1884.085 
1884.137 
1884.189 
1884.241 
1884.293 
1884.345 
1884.397 
1884.450 
1884.502 
1884.554 
1884.606 
1884.658 
1884.710 
1884.762 
1884.814 
1884.866 
1884.918 
1884.970 
1885.022 
1885.075 
1885.127 
1885.179 
1885.231 
1885.283 
1885.335 
1885.387 
1885.439 
1885.491 
1885.543 
1885.595 
1885.647 
1885.699 
1885.752 
1885.804 
1885.856 
1885.908 
1885.960 
1886.012 
1886.064 
1886.116 
1886.168 
1886.220 
1886.272 
1886.324 
1886.376 
1886.428 
1886.481 
1886.533 
1886.585 
1886.637 
1886.689 
1886.741 
1886.793 
1886.845 
1886.897 
1886.949 
1887.001 
1887.053 
1887.105 
1887.157 
1887.209 
1887.262 
1887.314 
1887.366 
1887.418 
1887.470 
1887.522 
1887.574 
1887.626 
1887.678 
1887.730 
1887.782 
1887.834 
1887.886 
1887.938 
1887.990 
1888.042 
1888.095 
1888.147 
1888.199 
1888.251 
1888.303 
1888.355 
1888.407 
1888.459 
1888.511 
1888.563 
1888.615 
1888.667 
1888.719 
1888.771 
1888.823 
1888.875 
1888.928 
1888.980 
1889.032 
1889.084 
1889.136 
1889.188 
1889.240 
1889.292 
1889.344 
1889.396 
1889.448 
1889.500 
1889.552 
1889.604 
1889.656 
1889.708 
1889.760 
1889.812 
1889.865 
1889.917 
1889.969 
1890.021 
1890.073 
1890.125 
1890.177 
1890.229 
1890.281 
1890.333 
1890.385 
1890.437 
1890.489 
1890.541 
1890.593 
1890.645 
1890.697 
1890.749 
1890.801 
1890.853 
1890.906 
1890.958 
1891.010 
1891.062 
1891.114 
1891.166 
1891.218 
1891.270 
1891.322 
1891.374 
1891.426 
1891.478 
1891.530 
1891.582 
1891.634 
1891.686 
1891.738 
1891.790 
1891.842 
1891.894 
1891.946 
1891.998 
1892.050 
1892.103 
1892.155 
1892.207 
1892.259 
1892.311 
1892.363 
1892.415 
1892.467 
1892.519 
1892.571 
1892.623 
1892.675 
1892.727 
1892.779 
1892.831 
1892.883 
1892.935 
1892.987 
1893.039 
1893.091 
1893.143 
1893.195 
1893.247 
1893.299 
1893.351 
1893.403 
1893.455 
1893.508 
1893.560 
1893.612 
1893.664 
1893.716 
1893.768 
1893.820 
1893.872 
1893.924 
1893.976 
1894.028 
1894.080 
1894.132 
1894.184 
1894.236 
1894.288 
1894.340 
1894.392 
1894.444 
1894.496 
1894.548 
1894.600 
1894.652 
1894.704 
1894.756 
1894.808 
1894.860 
1894.912 
1894.964 
1895.016 
1895.068 
1895.120 
1895.172 
1895.224 
1895.277 
1895.329 
1895.381 
1895.433 
1895.485 
1895.537 
1895.589 
1895.641 
1895.693 
1895.745 
1895.797 
1895.849 
1895.901 
1895.953 
1896.005 
1896.057 
1896.109 
1896.161 
1896.213 
1896.265 
1896.317 
1896.369 
1896.421 
1896.473 
1896.525 
1896.577 
1896.629 
1896.681 
1896.733 
1896.785 
1896.837 
1896.889 
1896.941 
1896.993 
1897.045 
1897.097 
1897.149 
1897.201 
1897.253 
1897.305 
1897.357 
1897.409 
1897.461 
1897.513 
1897.565 
1897.617 
1897.669 
1897.721 
1897.773 
1897.825 
1897.877 
1897.929 
1897.981 
1898.033 
1898.085 
1898.137 
1898.189 
1898.241 
1898.293 
1898.345 
1898.398 
1898.450 
1898.502 
1898.554 
1898.606 
1898.658 
1898.710 
1898.762 
1898.814 
1898.866 
1898.918 
1898.970 
1899.022 
1899.074 
1899.126 
1899.178 
1899.230 
1899.282 
1899.334 
1899.386 
1899.438 
1899.490 
1899.542 
1899.594 
1899.646 
1899.698 
1899.750 
1899.802 
1899.854 
1899.906 
1899.958 
